#  aims_uuid : 34ED089B-8E9C-4626-A65E-7A0C34F4742C                                
#  angular momentum projected density of states for species S as calculated by FHI-aims 
# The energy reference for this output is the vacuum level =       0.000000 eV
#      Energy (eV)         total dos     l= 0              l= 1              l= 2              l= 3              l= 4
      -10.00000000        0.96130592        0.07341498        0.82790123        0.05349036        0.00591076        0.00058859
       -9.98998999        1.01636876        0.07853928        0.87448055        0.05651365        0.00622297        0.00061231
       -9.97997998        1.07137364        0.08367981        0.92104636        0.05947937        0.00653043        0.00063767
       -9.96996997        1.12587812        0.08879791        0.96722181        0.06236298        0.00683085        0.00066458
       -9.95995996        1.17943443        0.09385371        1.01262541        0.06514040        0.00712199        0.00069292
       -9.94994995        1.23159398        0.09880645        1.05687508        0.06778817        0.00740170        0.00072258
       -9.93993994        1.28191160        0.10361489        1.09959178        0.07028362        0.00766791        0.00075340
       -9.92992993        1.32994955        0.10823762        1.14040302        0.07260508        0.00791865        0.00078517
       -9.91991992        1.37528163        0.11263358        1.17894622        0.07473211        0.00815203        0.00081769
       -9.90990991        1.41749755        0.11676247        1.21487242        0.07664569        0.00836629        0.00085069
       -9.89989990        1.45620777        0.12058535        1.24785021        0.07832856        0.00855977        0.00088388
       -9.88988989        1.49104887        0.12406522        1.27757024        0.07976549        0.00873099        0.00091694
       -9.87987988        1.52168957        0.12716772        1.30375008        0.08094367        0.00887859        0.00094950
       -9.86986987        1.54783697        0.12986179        1.32613955        0.08185296        0.00900146        0.00098121
       -9.85985986        1.56924311        0.13212032        1.34452612        0.08248633        0.00909869        0.00101165
       -9.84984985        1.58571118        0.13392085        1.35874022        0.08284003        0.00916964        0.00104044
       -9.83983984        1.59710115        0.13524609        1.36866006        0.08291385        0.00921396        0.00106719
       -9.82982983        1.60333434        0.13608440        1.37421565        0.08271117        0.00923159        0.00109154
       -9.81981982        1.60439657        0.13643003        1.37539156        0.08223903        0.00922282        0.00111313
       -9.80980981        1.60033951        0.13628334        1.37222832        0.08150789        0.00918827        0.00113169
       -9.79979980        1.59128014        0.13565072        1.36482216        0.08053145        0.00912885        0.00114696
       -9.78978979        1.57739828        0.13454438        1.35332308        0.07932623        0.00904582        0.00115877
       -9.77977978        1.55893217        0.13298199        1.33793133        0.07791117        0.00894069        0.00116700
       -9.76976977        1.53617247        0.13098618        1.31889244        0.07630705        0.00881521        0.00117160
       -9.75975976        1.50945499        0.12858393        1.29649113        0.07453599        0.00867134        0.00117260
       -9.74974975        1.47915248        0.12580587        1.27104443        0.07262087        0.00851120        0.00117010
       -9.73973974        1.44566599        0.12268561        1.24289426        0.07058484        0.00833702        0.00116426
       -9.72972973        1.40941623        0.11925896        1.21240003        0.06845086        0.00815108        0.00115530
       -9.71971972        1.37083515        0.11556332        1.17993136        0.06624129        0.00795570        0.00114348
       -9.70970971        1.33035819        0.11163697        1.14586132        0.06397762        0.00775315        0.00112913
       -9.69969970        1.28841721        0.10751852        1.11056021        0.06168021        0.00754568        0.00111259
       -9.68968969        1.24543438        0.10324641        1.07439013        0.05936819        0.00733545        0.00109421
       -9.67967968        1.20181682        0.09885841        1.03770018        0.05705934        0.00712451        0.00107438
       -9.66966967        1.15795210        0.09439127        1.00082249        0.05477008        0.00691477        0.00105349
       -9.65965966        1.11420452        0.08988036        0.96406879        0.05251545        0.00670803        0.00103189
       -9.64964965        1.07091199        0.08535931        0.92772769        0.05030915        0.00650589        0.00100995
       -9.63963964        1.02838358        0.08085980        0.89206244        0.04816351        0.00630982        0.00098800
       -9.62962963        0.98689763        0.07641129        0.85730932        0.04608957        0.00612108        0.00096636
       -9.61961962        0.94670050        0.07204079        0.82367661        0.04409704        0.00594076        0.00094530
       -9.60960961        0.90800601        0.06777267        0.79134420        0.04219432        0.00576973        0.00092509
       -9.59959960        0.87099561        0.06362856        0.76046391        0.04038850        0.00560869        0.00090594
       -9.58958959        0.83581942        0.05962721        0.73116060        0.03868542        0.00545813        0.00088805
       -9.57957958        0.80259817        0.05578452        0.70353405        0.03708964        0.00531836        0.00087160
       -9.56956957        0.77142611        0.05211353        0.67766181        0.03560454        0.00518949        0.00085675
       -9.55955956        0.74237474        0.04862453        0.65360265        0.03423244        0.00507149        0.00084363
       -9.54954955        0.71549741        0.04532527        0.63140088        0.03297467        0.00496419        0.00083239
       -9.53953954        0.69083456        0.04222118        0.61109108        0.03183181        0.00486732        0.00082317
       -9.52952953        0.66841935        0.03931563        0.59270324        0.03080383        0.00478052        0.00081612
       -9.51951952        0.64828345        0.03661031        0.57626794        0.02989037        0.00470344        0.00081139
       -9.50950951        0.63046265        0.03410551        0.56182134        0.02909094        0.00463571        0.00080916
       -9.49949950        0.61500204        0.03180049        0.54940971        0.02840516        0.00457705        0.00080962
       -9.48948949        0.60196032        0.02969379        0.53909323        0.02783304        0.00452726        0.00081299
       -9.47947948        0.59141320        0.02778350        0.53094876        0.02737512        0.00448634        0.00081947
       -9.46946947        0.58345532        0.02606744        0.52507146        0.02703266        0.00445444        0.00082932
       -9.45945946        0.57820085        0.02454334        0.52157501        0.02680775        0.00443197        0.00084278
       -9.44944945        0.57578229        0.02320893        0.52059040        0.02670332        0.00441957        0.00086009
       -9.43943944        0.57634770        0.02206184        0.52226305        0.02672315        0.00441816        0.00088149
       -9.42942943        0.58005605        0.02109963        0.52674854        0.02687174        0.00442894        0.00090721
       -9.41941942        0.58707106        0.02031956        0.53420661        0.02715412        0.00445335        0.00093743
       -9.40940941        0.59755327        0.01971841        0.54479391        0.02757557        0.00449307        0.00097231
       -9.39939940        0.61165086        0.01929226        0.55865538        0.02814128        0.00454997        0.00101197
       -9.38938939        0.62948930        0.01903619        0.57591466        0.02885595        0.00462604        0.00105646
       -9.37937938        0.65116021        0.01894402        0.59666382        0.02972329        0.00472332        0.00110577
       -9.36936937        0.67670996        0.01900807        0.62095271        0.03074553        0.00484383        0.00115981
       -9.35935936        0.70612831        0.01921896        0.64877854        0.03192295        0.00498943        0.00121843
       -9.34934935        0.73933792        0.01956538        0.68007610        0.03325332        0.00516176        0.00128136
       -9.33933934        0.77618518        0.02003408        0.71470926        0.03473149        0.00536209        0.00134826
       -9.32932933        0.81643301        0.02060980        0.75246428        0.03634901        0.00559123        0.00141869
       -9.31931932        0.85975629        0.02127539        0.79304554        0.03809381        0.00584944        0.00149211
       -9.30930931        0.90574050        0.02201197        0.83607420        0.03995015        0.00613631        0.00156788
       -9.29929930        0.95388381        0.02279922        0.88109010        0.04189853        0.00645068        0.00164528
       -9.28928929        1.00360309        0.02361575        0.92755728        0.04391591        0.00679065        0.00172351
       -9.27927928        1.05424379        0.02443957        0.97487302        0.04597605        0.00715346        0.00180170
       -9.26926927        1.10509351        0.02524856        1.02238044        0.04805004        0.00753558        0.00187890
       -9.25925926        1.15539894        0.02602107        1.06938410        0.05010694        0.00793269        0.00195414
       -9.24924925        1.20438548        0.02673648        1.11516814        0.05211462        0.00833979        0.00202645
       -9.23923924        1.25127870        0.02737577        1.15901620        0.05404064        0.00875126        0.00209482
       -9.22922923        1.29532667        0.02792204        1.20023207        0.05585323        0.00916102        0.00215831
       -9.21921922        1.33582212        0.02836094        1.23816024        0.05752225        0.00956268        0.00221601
       -9.20920921        1.37212330        0.02868112        1.27220522        0.05902014        0.00994971        0.00226710
       -9.19919920        1.40367238        0.02887440        1.30184872        0.06032278        0.01031563        0.00231086
       -9.18918919        1.43001079        0.02893598        1.32666370        0.06141022        0.01065421        0.00234669
       -9.17917918        1.45079041        0.02886442        1.34632492        0.06226729        0.01095966        0.00237413
       -9.16916917        1.46578041        0.02866154        1.36061526        0.06288393        0.01122681        0.00239288
       -9.15915916        1.47486947        0.02833220        1.36942775        0.06325543        0.01145129        0.00240280
       -9.14914915        1.47806346        0.02788396        1.37276351        0.06338243        0.01162963        0.00240393
       -9.13913914        1.47547892        0.02732669        1.37072570        0.06327068        0.01175942        0.00239644
       -9.12912913        1.46733301        0.02667207        1.36351026        0.06293068        0.01183931        0.00238067
       -9.11911912        1.45393058        0.02593314        1.35139403        0.06237718        0.01186911        0.00235712
       -9.10910911        1.43564932        0.02512374        1.33472098        0.06162847        0.01184973        0.00232639
       -9.09909910        1.41292379        0.02425808        1.31388764        0.06070573        0.01178314        0.00228919
       -9.08908909        1.38622923        0.02335026        1.28932817        0.05963222        0.01167228        0.00224630
       -9.07907908        1.35606600        0.02241387        1.26150014        0.05843247        0.01152095        0.00219857
       -9.06906907        1.32294512        0.02146172        1.23087133        0.05713157        0.01133363        0.00214688
       -9.05905906        1.28737549        0.02050551        1.19790814        0.05575441        0.01111534        0.00209209
       -9.04904905        1.24985308        0.01955574        1.16306579        0.05432503        0.01087143        0.00203508
       -9.03903904        1.21085216        0.01862153        1.12678048        0.05286607        0.01060744        0.00197665
       -9.02902903        1.17081867        0.01771064        1.08946342        0.05139821        0.01032882        0.00191757
       -9.01901902        1.13016542        0.01682945        1.05149669        0.04993989        0.01004088        0.00185853
       -9.00900901        1.08926915        0.01598303        1.01323058        0.04850691        0.00974852        0.00180011
       -8.99899900        1.04846903        0.01517526        0.97498238        0.04711235        0.00945619        0.00174285
       -8.98898899        1.00806640        0.01440892        0.93703619        0.04576643        0.00916774        0.00168712
       -8.97897898        0.96832560        0.01368584        0.89964356        0.04447659        0.00888635        0.00163326
       -8.96896897        0.92947550        0.01300702        0.86302490        0.04324757        0.00861455        0.00158147
       -8.95895896        0.89171171        0.01237281        0.82737122        0.04208168        0.00835414        0.00153187
       -8.94894895        0.85519922        0.01178298        0.79284638        0.04097908        0.00810628        0.00148450
       -8.93893894        0.82007537        0.01123689        0.75958944        0.03993817        0.00787154        0.00143934
       -8.92892893        0.78645307        0.01073356        0.72771721        0.03895604        0.00764995        0.00139631
       -8.91891892        0.75442403        0.01027178        0.69732689        0.03802892        0.00744115        0.00135529
       -8.90890891        0.72406207        0.00985019        0.66849860        0.03715269        0.00724446        0.00131613
       -8.89889890        0.69542617        0.00946734        0.64129785        0.03632331        0.00705899        0.00127869
       -8.88888889        0.66856332        0.00912174        0.61577769        0.03553732        0.00688378        0.00124280
       -8.87887888        0.64351088        0.00881190        0.59198062        0.03479214        0.00671788        0.00120834
       -8.86886887        0.62029843        0.00853634        0.56994002        0.03408643        0.00656045        0.00117519
       -8.85885886        0.59894904        0.00829364        0.54968110        0.03342020        0.00641081        0.00114330
       -8.84884885        0.57947974        0.00808240        0.53122128        0.03279495        0.00626850        0.00111261
       -8.83883884        0.56190134        0.00790129        0.51457001        0.03221362        0.00613329        0.00108312
       -8.82882883        0.54621754        0.00774899        0.49972806        0.03168040        0.00600521        0.00105488
       -8.81881882        0.53242342        0.00762418        0.48668627        0.03120053        0.00588451        0.00102794
       -8.80880881        0.52050343        0.00752555        0.47542397        0.03077990        0.00577161        0.00100239
       -8.79879880        0.51042908        0.00745173        0.46590718        0.03042472        0.00566710        0.00097835
       -8.78878879        0.50215654        0.00740125        0.45808670        0.03014102        0.00557166        0.00095592
       -8.77877878        0.49562428        0.00737254        0.45189636        0.02993419        0.00548597        0.00093522
       -8.76876877        0.49075111        0.00736387        0.44725158        0.02980863        0.00541069        0.00091634
       -8.75875876        0.48743477        0.00737330        0.44404844        0.02976724        0.00534639        0.00089939
       -8.74874875        0.48555126        0.00739867        0.44216349        0.02981119        0.00529348        0.00088443
       -8.73873874        0.48495510        0.00743756        0.44145425        0.02993961        0.00525219        0.00087150
       -8.72872873        0.48548057        0.00748726        0.44176070        0.03014948        0.00522253        0.00086060
       -8.71871872        0.48694404        0.00754480        0.44290767        0.03043557        0.00520427        0.00085172
       -8.70870871        0.48914727        0.00760693        0.44470807        0.03079050        0.00519696        0.00084481
       -8.69869870        0.49188171        0.00767018        0.44696697        0.03120489        0.00519987        0.00083979
       -8.68868869        0.49493341        0.00773086        0.44948625        0.03166763        0.00521211        0.00083656
       -8.67867868        0.49808863        0.00778521        0.45206970        0.03216619        0.00523255        0.00083498
       -8.66866867        0.50113956        0.00782941        0.45452833        0.03268697        0.00525994        0.00083491
       -8.65865866        0.50389011        0.00785974        0.45668551        0.03321577        0.00529291        0.00083618
       -8.64864865        0.50616127        0.00787270        0.45838177        0.03373820        0.00532999        0.00083862
       -8.63863864        0.50779596        0.00786510        0.45947904        0.03424008        0.00536970        0.00084203
       -8.62862863        0.50866288        0.00783425        0.45986397        0.03470787        0.00541058        0.00084621
       -8.61861862        0.50865948        0.00777799        0.45945027        0.03512904        0.00545121        0.00085097
       -8.60860861        0.50771360        0.00769490        0.45818004        0.03549232        0.00549024        0.00085609
       -8.59859860        0.50578404        0.00758427        0.45602387        0.03578805        0.00552646        0.00086139
       -8.58858859        0.50285988        0.00744623        0.45297997        0.03600825        0.00555879        0.00086664
       -8.57857858        0.49895882        0.00728173        0.44907232        0.03614684        0.00558629        0.00087164
       -8.56856857        0.49412464        0.00709250        0.44434812        0.03619960        0.00560820        0.00087622
       -8.55855856        0.48842405        0.00688102        0.43887460        0.03616430        0.00562397        0.00088017
       -8.54854855        0.48194313        0.00665042        0.43273565        0.03604055        0.00563318        0.00088332
       -8.53853854        0.47478362        0.00640434        0.42602827        0.03582984        0.00563564        0.00088552
       -8.52852853        0.46705941        0.00614681        0.41885923        0.03553540        0.00563134        0.00088664
       -8.51851852        0.45889318        0.00588207        0.41134198        0.03516215        0.00562042        0.00088655
       -8.50850851        0.45041358        0.00561448        0.40359406        0.03471661        0.00560324        0.00088519
       -8.49849850        0.44175291        0.00534828        0.39573499        0.03420681        0.00558032        0.00088251
       -8.48848849        0.43304530        0.00508755        0.38788468        0.03364221        0.00555235        0.00087851
       -8.47847848        0.42442546        0.00483606        0.38016236        0.03303362        0.00552018        0.00087324
       -8.46846847        0.41602785        0.00459722        0.37268591        0.03239309        0.00548483        0.00086680
