#  aims_uuid : 34ED089B-8E9C-4626-A65E-7A0C34F4742C                                
#  angular momentum projected density of states for species S as calculated by FHI-aims 
# The energy reference for this output is the chemical potential, mu =      -5.302743 eV
#      Energy (eV)         total dos     l= 0              l= 1              l= 2              l= 3              l= 4
       -4.69725688        0.98049861        0.07700700        0.84330610        0.05355607        0.00605295        0.00057649
       -4.68724687        1.03575603        0.08191998        0.89032125        0.05656312        0.00634398        0.00060770
       -4.67723686        1.09124087        0.08681004        0.93764437        0.05951889        0.00662711        0.00064046
       -4.66722685        1.14647998        0.09163167        0.98487473        0.06239875        0.00690033        0.00067450
       -4.65721684        1.20098254        0.09633786        1.03159469        0.06517864        0.00716181        0.00070953
       -4.64720683        1.25424576        0.10088092        1.07737426        0.06783542        0.00740993        0.00074523
       -4.63719682        1.30576080        0.10521336        1.12177583        0.07034710        0.00764326        0.00078125
       -4.62718681        1.35501908        0.10928887        1.16435922        0.07269316        0.00786059        0.00081723
       -4.61717680        1.40151909        0.11306328        1.20468735        0.07485475        0.00806092        0.00085279
       -4.60716679        1.44477383        0.11649559        1.24233235        0.07681489        0.00824347        0.00088753
       -4.59715678        1.48431875        0.11954894        1.27688241        0.07855873        0.00840762        0.00092106
       -4.58714677        1.51972023        0.12219146        1.30794913        0.08007369        0.00855295        0.00095300
       -4.57713676        1.55058426        0.12439708        1.33517535        0.08134966        0.00867922        0.00098294
       -4.56712675        1.57656512        0.12614607        1.35824306        0.08237913        0.00878632        0.00101053
       -4.55711674        1.59737361        0.12742550        1.37688119        0.08315725        0.00887427        0.00103542
       -4.54710673        1.61278446        0.12822933        1.39087276        0.08368189        0.00894321        0.00105728
       -4.53709672        1.62264237        0.12855844        1.40006109        0.08395362        0.00899338        0.00107584
       -4.52708671        1.62686641        0.12842029        1.40435460        0.08397556        0.00902509        0.00109088
       -4.51707670        1.62545240        0.12782843        1.40372981        0.08375326        0.00903868        0.00110222
       -4.50706669        1.61847299        0.12680182        1.39823242        0.08329442        0.00903456        0.00110976
       -4.49705668        1.60607551        0.12536404        1.38797625        0.08260859        0.00901316        0.00111348
       -4.48704667        1.58847751        0.12354232        1.37314004        0.08170685        0.00897490        0.00111340
       -4.47703666        1.56596032        0.12136664        1.35396235        0.08060146        0.00892023        0.00110964
       -4.46702665        1.53886098        0.11886880        1.33073471        0.07930550        0.00884960        0.00110237
       -4.45701664        1.50756286        0.11608155        1.30379342        0.07783256        0.00876348        0.00109184
       -4.44700663        1.47248567        0.11303783        1.27351061        0.07619651        0.00866237        0.00107836
       -4.43699662        1.43407517        0.10977019        1.24028465        0.07441128        0.00854680        0.00106226
       -4.42698661        1.39279323        0.10631032        1.20453082        0.07249078        0.00841738        0.00104393
       -4.41697660        1.34910848        0.10268876        1.16667228        0.07044886        0.00827482        0.00102377
       -4.40696659        1.30348807        0.09893479        1.12713184        0.06829933        0.00811992        0.00100219
       -4.39695658        1.25639052        0.09507638        1.08632482        0.06605608        0.00795365        0.00097960
       -4.38694657        1.20825992        0.09114031        1.04465293        0.06373321        0.00777708        0.00095639
       -4.37693656        1.15952138        0.08715230        1.00249951        0.06134514        0.00759149        0.00093295
       -4.36692655        1.11057763        0.08313721        0.96022579        0.05890677        0.00739827        0.00090959
       -4.35691654        1.06180665        0.07911919        0.91816834        0.05643352        0.00719898        0.00088662
       -4.34690653        1.01356013        0.07512176        0.87663741        0.05394137        0.00699529        0.00086430
       -4.33689652        0.96616256        0.07116789        0.83591605        0.05144683        0.00678895        0.00084283
       -4.32688651        0.91991085        0.06727991        0.79625993        0.04896683        0.00658179        0.00082239
       -4.31687650        0.87507429        0.06347939        0.75789767        0.04651850        0.00637562        0.00080312
       -4.30686649        0.83189484        0.05978689        0.72103164        0.04411897        0.00617223        0.00078510
       -4.29685648        0.79058770        0.05622169        0.68583914        0.04178509        0.00597336        0.00076843
       -4.28684647        0.75134223        0.05280139        0.65247396        0.03953312        0.00578060        0.00075315
       -4.27683646        0.71432312        0.04954162        0.62106830        0.03737845        0.00559543        0.00073933
       -4.26682645        0.67967204        0.04645561        0.59173490        0.03533534        0.00541917        0.00072702
       -4.25681644        0.64750955        0.04355397        0.56456964        0.03341671        0.00525296        0.00071627
       -4.24680643        0.61793756        0.04084441        0.53965425        0.03163395        0.00509778        0.00070717
       -4.23679642        0.59104200        0.03833162        0.51705927        0.02999684        0.00495446        0.00069982
       -4.22678641        0.56689588        0.03601725        0.49684707        0.02851353        0.00482370        0.00069433
       -4.21677640        0.54556243        0.03390002        0.47907485        0.02719059        0.00470609        0.00069087
       -4.20676639        0.52709831        0.03197591        0.46379754        0.02603307        0.00460216        0.00068962
       -4.19675638        0.51155670        0.03023849        0.45107028        0.02504470        0.00451243        0.00069079
       -4.18674637        0.49899004        0.02867934        0.44095066        0.02422802        0.00443740        0.00069462
       -4.17673636        0.48945236        0.02728846        0.43350027        0.02358461        0.00437766        0.00070137
       -4.16672635        0.48300099        0.02605486        0.42878572        0.02311526        0.00433384        0.00071130
       -4.15671634        0.47969757        0.02496702        0.42687894        0.02282018        0.00430673        0.00072471
       -4.14670633        0.47960825        0.02401337        0.42785670        0.02269911        0.00429720        0.00074188
       -4.13669632        0.48280301        0.02318279        0.43179938        0.02275148        0.00430627        0.00076309
       -4.12668631        0.48935406        0.02246494        0.43878900        0.02297642        0.00433508        0.00078863
       -4.11667630        0.49933333        0.02185054        0.44890639        0.02337280        0.00438487        0.00081872
       -4.10666629        0.51280898        0.02133161        0.46222766        0.02393918        0.00445694        0.00085360
       -4.09665628        0.52984112        0.02090149        0.47881992        0.02467369        0.00455258        0.00089343
       -4.08664627        0.55047651        0.02055485        0.49873637        0.02557390        0.00467304        0.00093835
       -4.07663626        0.57474261        0.02028753        0.52201065        0.02663661        0.00481942        0.00098840
       -4.06662625        0.60264095        0.02009638        0.54865080        0.02785761        0.00499259        0.00104357
       -4.05661624        0.63413998        0.01997895        0.57863274        0.02923144        0.00519309        0.00110376
       -4.04660623        0.66916768        0.01993318        0.61189357        0.03075112        0.00542106        0.00116875
       -4.03659622        0.70760418        0.01995703        0.64832494        0.03240788        0.00567610        0.00123824
       -4.02658621        0.74927479        0.02004813        0.68776669        0.03419096        0.00595723        0.00131178
       -4.01657620        0.79394373        0.02020346        0.73000126        0.03608736        0.00626281        0.00138883
       -4.00656619        0.84130914        0.02041906        0.77474912        0.03808176        0.00659049        0.00146871
       -3.99655618        0.89099977        0.02068975        0.82166580        0.04015642        0.00693719        0.00155061
       -3.98654617        0.94257378        0.02100902        0.87034080        0.04229118        0.00729916        0.00163362
       -3.97653616        0.99552014        0.02136893        0.92029888        0.04446364        0.00767195        0.00171674
       -3.96652615        1.04926279        0.02176015        0.97100388        0.04664932        0.00805056        0.00179889
       -3.95651614        1.10316800        0.02217203        1.02186551        0.04882200        0.00842953        0.00187893
       -3.94650613        1.15655467        0.02259284        1.07224886        0.05095419        0.00880307        0.00195572
       -3.93649612        1.20870768        0.02301002        1.12148672        0.05301758        0.00916526        0.00202811
       -3.92648611        1.25889385        0.02341053        1.16889440        0.05498371        0.00951018        0.00209502
       -3.91647610        1.30637988        0.02378125        1.21378643        0.05682460        0.00983214        0.00215545
       -3.90646609        1.35045186        0.02410937        1.25549472        0.05851344        0.01012583        0.00220850
       -3.89645608        1.39043525        0.02438280        1.29338721        0.06002529        0.01038651        0.00225344
       -3.88644607        1.42571459        0.02459064        1.32688636        0.06133778        0.01061012        0.00228968
       -3.87643606        1.45575194        0.02472345        1.35548649        0.06243170        0.01079345        0.00231683
       -3.86642605        1.48010325        0.02477363        1.37876917        0.06329158        0.01093416        0.00233471
       -3.85641604        1.49843179        0.02473563        1.39641591        0.06390607        0.01103087        0.00234331
       -3.84640603        1.51051792        0.02460609        1.40821753        0.06426833        0.01108314        0.00234282
       -3.83639602        1.51626495        0.02438396        1.41407979        0.06437613        0.01109147        0.00233360
       -3.82638601        1.51570064        0.02407047        1.41402490        0.06423191        0.01105719        0.00231617
       -3.81637600        1.50897439        0.02366900        1.40818912        0.06384266        0.01098242        0.00229119
       -3.80636599        1.49635032        0.02318497        1.39681635        0.06321965        0.01086995        0.00225940
       -3.79635598        1.47819667        0.02262557        1.38024828        0.06237809        0.01072309        0.00222163
       -3.78634597        1.45497194        0.02199951        1.35891150        0.06133658        0.01054558        0.00217876
       -3.77633596        1.42720865        0.02131667        1.33330228        0.06011657        0.01034145        0.00213168
       -3.76632595        1.39549530        0.02058780        1.30396965        0.05874171        0.01011489        0.00208126
       -3.75631594        1.36045743        0.01982414        1.27149761        0.05723718        0.00987013        0.00202836
       -3.74630593        1.32273849        0.01903710        1.23648722        0.05562897        0.00961141        0.00197379
       -3.73629592        1.28298140        0.01823792        1.19953918        0.05394322        0.00934279        0.00191829
       -3.72628591        1.24181131        0.01743738        1.16123765        0.05220557        0.00906817        0.00186254
       -3.71627590        1.19982016        0.01664550        1.12213578        0.05044055        0.00879119        0.00180713
       -3.70626589        1.15755371        0.01587135        1.08274347        0.04867110        0.00851521        0.00175258
       -3.69625588        1.11550105        0.01512282        1.04351757        0.04691807        0.00824326        0.00169934
       -3.68624587        1.07408716        0.01440652        1.00485492        0.04519994        0.00797803        0.00164776
       -3.67623586        1.03366838        0.01372766        0.96708812        0.04353262        0.00772185        0.00159813
       -3.66622585        0.99453083        0.01309003        0.93048416        0.04192927        0.00747669        0.00155068
       -3.65621584        0.95689178        0.01249604        0.89524567        0.04040035        0.00724417        0.00150555
       -3.64620583        0.92090343        0.01194671        0.86151462        0.03895374        0.00702553        0.00146283
       -3.63619582        0.88665903        0.01144187        0.82937803        0.03759488        0.00682168        0.00142257
       -3.62618581        0.85420072        0.01098027        0.79887538        0.03632709        0.00663322        0.00138475
       -3.61617580        0.82352855        0.01055974        0.77000718        0.03515190        0.00646041        0.00134933
       -3.60616579        0.79461033        0.01017745        0.74274407        0.03406935        0.00630325        0.00131621
       -3.59615578        0.76739145        0.00983008        0.71703612        0.03307845        0.00616151        0.00128528
       -3.58614577        0.74180436        0.00951408        0.69282168        0.03217745        0.00603473        0.00125641
       -3.57613576        0.71777709        0.00922584        0.67003532        0.03136417        0.00592229        0.00122945
       -3.56612575        0.69524045        0.00896192        0.64861453        0.03063630        0.00582344        0.00120426
       -3.55611574        0.67413354        0.00871917        0.62850483        0.02999154        0.00573733        0.00118067
       -3.54610573        0.65440743        0.00849488        0.60966323        0.02942772        0.00566305        0.00115854
       -3.53609572        0.63602698        0.00828686        0.59205982        0.02894285        0.00559970        0.00113775
       -3.52608571        0.61897072        0.00809345        0.57567765        0.02853506        0.00554637        0.00111818
       -3.51607570        0.60322922        0.00791356        0.56051117        0.02820255        0.00550220        0.00109975
       -3.50606569        0.58880197        0.00774656        0.54656324        0.02794339        0.00546640        0.00108238
       -3.49605568        0.57569326        0.00759229        0.53384129        0.02775540        0.00543824        0.00106604
       -3.48604567        0.56390753        0.00745086        0.52235288        0.02763598        0.00541708        0.00105072
       -3.47603566        0.55344432        0.00732261        0.51210094        0.02758195        0.00540239        0.00103643
       -3.46602565        0.54429359        0.00720794        0.50307933        0.02758943        0.00539369        0.00102319
       -3.45601564        0.53643135        0.00710718        0.49526873        0.02765377        0.00539061        0.00101106
       -3.44600563        0.52981633        0.00702050        0.48863338        0.02776955        0.00539281        0.00100009
       -3.43599562        0.52438749        0.00694777        0.48311878        0.02793058        0.00540002        0.00099035
       -3.42598561        0.52006287        0.00688854        0.47865044        0.02813004        0.00541196        0.00098190
       -3.41597560        0.51673964        0.00684193        0.47513394        0.02836060        0.00542836        0.00097480
       -3.40596559        0.51429542        0.00680666        0.47245607        0.02861464        0.00544895        0.00096909
       -3.39595558        0.51259075        0.00678102        0.47048715        0.02888440        0.00547339        0.00096479
       -3.38594557        0.51147261        0.00676291        0.46908426        0.02916224        0.00550129        0.00096190
       -3.37593556        0.51077871        0.00674993        0.46809534        0.02944085        0.00553219        0.00096040
       -3.36592555        0.51034238        0.00673943        0.46736379        0.02971339        0.00556556        0.00096021
       -3.35591554        0.50999773        0.00672862        0.46673340        0.02997370        0.00560076        0.00096125
       -3.34590553        0.50958487        0.00671469        0.46605336        0.03021633        0.00563710        0.00096339
       -3.33589552        0.50895476        0.00669487        0.46518293        0.03043665        0.00567383        0.00096647
       -3.32588551        0.50797366        0.00666661        0.46399581        0.03063082        0.00571011        0.00097031
       -3.31587550        0.50652677        0.00662761        0.46238366        0.03079574        0.00574509        0.00097468
       -3.30586549        0.50452103        0.00657595        0.46025887        0.03092895        0.00577790        0.00097936
       -3.29585548        0.50188688        0.00651014        0.45755641        0.03102858        0.00580766        0.00098410
       -3.28584547        0.49857906        0.00642915        0.45423458        0.03109313        0.00583355        0.00098864
       -3.27583546        0.49457635        0.00633248        0.45027490        0.03112147        0.00585478        0.00099273
       -3.26582545        0.48988056        0.00622010        0.44568107        0.03111264        0.00587064        0.00099611
       -3.25581544        0.48451471        0.00609250        0.44047728        0.03106587        0.00588051        0.00099855
       -3.24580543        0.47852066        0.00595058        0.43470583        0.03098050        0.00588392        0.00099983
       -3.23579542        0.47195658        0.00579568        0.42842458        0.03085605        0.00588051        0.00099976
       -3.22578541        0.46489420        0.00562944        0.42170416        0.03069233        0.00587009        0.00099818
       -3.21577540        0.45741623        0.00545379        0.41462534        0.03048948        0.00585264        0.00099498
       -3.20576539        0.44961411        0.00527085        0.40727657        0.03024826        0.00582834        0.00099010
       -3.19575538        0.44158613        0.00508291        0.39975202        0.02997016        0.00579754        0.00098350
       -3.18574537        0.43343607        0.00489232        0.39215003        0.02965764        0.00576084        0.00097524
       -3.17573536        0.42527237        0.00470150        0.38457209        0.02931435        0.00571901        0.00096542
       -3.16572535        0.41720772        0.00451289        0.37712233        0.02894527        0.00567306        0.00095418
