#  aims_uuid : 34ED089B-8E9C-4626-A65E-7A0C34F4742C                                
#  angular momentum projected density of states for species S as calculated by FHI-aims 
# The energy reference for this output is the chemical potential, mu =      -5.302743 eV
#      Energy (eV)         total dos     l= 0              l= 1              l= 2              l= 3              l= 4
       -4.69725688        1.03623271        0.07736679        0.89367978        0.05822171        0.00639669        0.00056773
       -4.68724687        1.09178639        0.08242817        0.94065166        0.06139951        0.00670715        0.00059990
       -4.67723686        1.14680809        0.08746275        0.98720454        0.06449679        0.00700982        0.00063419
       -4.66722685        1.20082593        0.09242869        1.03293381        0.06749020        0.00730281        0.00067042
       -4.65721684        1.25336111        0.09728198        1.07742973        0.07035674        0.00758428        0.00070838
       -4.64720683        1.30393027        0.10197680        1.12027949        0.07307369        0.00785249        0.00074781
       -4.63719682        1.35204817        0.10646596        1.16106943        0.07561863        0.00810575        0.00078841
       -4.62718681        1.39723122        0.11070159        1.19938786        0.07796951        0.00834243        0.00082983
       -4.61717680        1.43900219        0.11463602        1.23482877        0.08010476        0.00856095        0.00087168
       -4.60716679        1.47689661        0.11822286        1.26699690        0.08200355        0.00875976        0.00091354
       -4.59715678        1.51047091        0.12141820        1.29551432        0.08364607        0.00893739        0.00095494
       -4.58714677        1.53931231        0.12418200        1.32002849        0.08501401        0.00909244        0.00099537
       -4.57713676        1.56304997        0.12647945        1.34022151        0.08609105        0.00922364        0.00103433
       -4.56712675        1.58136709        0.12828231        1.35582026        0.08686338        0.00932986        0.00107128
       -4.55711674        1.59401297        0.12957007        1.36660665        0.08732034        0.00941020        0.00110571
       -4.54710673        1.60081432        0.13033091        1.37242738        0.08745493        0.00946399        0.00113711
       -4.53709672        1.60168480        0.13056230        1.37320237        0.08726426        0.00949086        0.00116501
       -4.52708671        1.59663208        0.13027126        1.36893112        0.08674996        0.00949074        0.00118899
       -4.51707670        1.58576158        0.12947416        1.35969642        0.08591837        0.00946395        0.00120869
       -4.50706669        1.56927656        0.12819614        1.34566491        0.08478056        0.00941112        0.00122383
       -4.49705668        1.54747429        0.12647015        1.32708443        0.08335224        0.00933326        0.00123420
       -4.48704667        1.52073845        0.12433562        1.30427800        0.08165344        0.00923168        0.00123972
       -4.47703666        1.48952819        0.12183696        1.27763486        0.07970801        0.00910799        0.00124037
       -4.46702665        1.45436433        0.11902186        1.24759910        0.07754305        0.00896407        0.00123625
       -4.45701664        1.41581373        0.11593965        1.21465640        0.07518819        0.00880195        0.00122754
       -4.44700663        1.37447255        0.11263959        1.17931980        0.07267483        0.00862382        0.00121452
       -4.43699662        1.33094943        0.10916948        1.14211513        0.07003533        0.00843195        0.00119754
       -4.42698661        1.28584932        0.10557446        1.10356696        0.06730227        0.00822862        0.00117702
       -4.41697660        1.23975885        0.10189600        1.06418565        0.06450769        0.00801609        0.00115343
       -4.40696659        1.19323354        0.09817137        1.02445588        0.06168245        0.00779655        0.00112729
       -4.39695658        1.14678737        0.09443324        0.98482723        0.05885569        0.00757209        0.00109911
       -4.38694657        1.10088490        0.09070968        0.94570675        0.05605434        0.00734468        0.00106945
       -4.37693656        1.05593566        0.08702426        0.90745363        0.05330280        0.00711613        0.00103884
       -4.36692655        1.01229099        0.08339643        0.87037599        0.05062266        0.00688812        0.00100779
       -4.35691654        0.97024291        0.07984190        0.83472944        0.04803260        0.00666218        0.00097678
       -4.34690653        0.93002483        0.07637316        0.80071736        0.04554833        0.00643970        0.00094628
       -4.33689652        0.89181380        0.07299992        0.76849268        0.04318261        0.00622191        0.00091667
       -4.32688651        0.85573411        0.06972955        0.73816092        0.04094536        0.00600995        0.00088833
       -4.31687650        0.82186203        0.06656747        0.70978434        0.03884384        0.00580483        0.00086155
       -4.30686649        0.79023156        0.06351744        0.68338716        0.03688290        0.00560744        0.00083662
       -4.29685648        0.76084096        0.06058185        0.65896152        0.03506522        0.00541862        0.00081375
       -4.28684647        0.73366008        0.05776191        0.63647429        0.03339165        0.00523911        0.00079313
       -4.27683646        0.70863824        0.05505779        0.61587441        0.03186153        0.00506959        0.00077492
       -4.26682645        0.68571255        0.05246886        0.59710066        0.03047308        0.00491072        0.00075924
       -4.25681644        0.66481641        0.04999379        0.58008956        0.02922374        0.00476308        0.00074624
       -4.24680643        0.64588788        0.04763077        0.56478326        0.02811056        0.00462726        0.00073602
       -4.23679642        0.62887774        0.04537774        0.55113699        0.02713048        0.00450383        0.00072870
       -4.22678641        0.61375676        0.04323254        0.53912577        0.02628069        0.00439334        0.00072442
       -4.21677640        0.60052184        0.04119322        0.52875012        0.02555885        0.00429635        0.00072331
       -4.20676639        0.58920082        0.03925821        0.52004036        0.02496327        0.00421344        0.00072554
       -4.19675638        0.57985554        0.03742655        0.51305939        0.02449309        0.00414522        0.00073128
       -4.18674637        0.57258303        0.03569808        0.50790361        0.02414831        0.00409230        0.00074073
       -4.17673636        0.56751474        0.03407349        0.50470206        0.02392975        0.00405533        0.00075411
       -4.16672635        0.56481375        0.03255446        0.50361360        0.02383904        0.00403501        0.00077163
       -4.15671634        0.56467000        0.03114358        0.50482240        0.02387845        0.00403206        0.00079350
       -4.14670633        0.56729389        0.02984426        0.50853172        0.02405070        0.00404726        0.00081995
       -4.13669632        0.57290830        0.02866063        0.51495635        0.02435874        0.00408141        0.00085117
       -4.12668631        0.58173932        0.02759722        0.52431386        0.02480552        0.00413537        0.00088735
       -4.11667630        0.59400619        0.02665874        0.53681511        0.02539369        0.00421002        0.00092862
       -4.10666629        0.60991048        0.02584974        0.55265403        0.02612534        0.00430628        0.00097509
       -4.09665628        0.62962510        0.02517422        0.57199735        0.02700169        0.00442503        0.00102681
       -4.08664627        0.65328321        0.02463529        0.59497413        0.02802286        0.00456717        0.00108376
       -4.07663626        0.68096749        0.02423477        0.62166579        0.02918758        0.00473349        0.00114587
       -4.06662625        0.71269994        0.02397287        0.65209650        0.03049291        0.00492468        0.00121298
       -4.05661624        0.74843259        0.02384783        0.68622458        0.03193409        0.00514124        0.00128485
       -4.04660623        0.78803932        0.02385566        0.72393484        0.03350424        0.00538342        0.00136116
       -4.03659622        0.83130929        0.02398993        0.76503247        0.03519427        0.00565114        0.00144148
       -4.02658621        0.87794210        0.02424164        0.80923861        0.03699264        0.00594392        0.00152528
       -4.01657620        0.92754527        0.02459913        0.85618803        0.03888536        0.00626080        0.00161195
       -4.00656619        0.97963421        0.02504817        0.90542914        0.04085588        0.00660024        0.00170077
       -3.99655618        1.03363517        0.02557209        0.95642687        0.04288515        0.00696013        0.00179093
       -3.98654617        1.08889131        0.02615203        1.00856836        0.04495173        0.00733768        0.00188151
       -3.97653616        1.14467219        0.02676730        1.06117191        0.04703199        0.00772946        0.00197154
       -3.96652615        1.20018657        0.02739583        1.11349896        0.04910042        0.00813139        0.00205996
       -3.95651614        1.25459853        0.02801475        1.16476922        0.05113006        0.00853880        0.00214570
       -3.94650613        1.30704653        0.02860095        1.21417847        0.05309298        0.00894651        0.00222762
       -3.93649612        1.35666488        0.02913180        1.26091860        0.05496096        0.00934892        0.00230461
       -3.92648611        1.40260691        0.02958577        1.30419924        0.05670615        0.00974017        0.00237557
       -3.91647610        1.44406901        0.02994318        1.34327023        0.05830181        0.01011432        0.00243947
       -3.90646609        1.48031452        0.03018675        1.37744380        0.05972312        0.01046550        0.00249536
       -3.89645608        1.51069634        0.03030225        1.40611569        0.06094794        0.01078808        0.00254237
       -3.88644607        1.53467729        0.03027889        1.42878411        0.06195756        0.01107692        0.00257981
       -3.87643606        1.55184720        0.03010973        1.44506560        0.06273728        0.01132748        0.00260711
       -3.86642605        1.56193574        0.02979183        1.45470703        0.06327700        0.01153598        0.00262390
       -3.85641604        1.56482055        0.02932632        1.45759315        0.06357152        0.01169957        0.00262998
       -3.84640603        1.56053003        0.02871830        1.45374925        0.06362077        0.01181637        0.00262533
       -3.83639602        1.54924084        0.02797658        1.44333880        0.06342979        0.01188552        0.00261015
       -3.82638601        1.53127015        0.02711327        1.42665631        0.06300853        0.01190723        0.00258481
       -3.81637600        1.50706298        0.02614332        1.40411566        0.06237147        0.01188269        0.00254984
       -3.80636599        1.47717552        0.02508389        1.37623457        0.06153706        0.01181406        0.00250593
       -3.79635598        1.44225502        0.02395371        1.34361604        0.06052704        0.01170430        0.00245393
       -3.78634597        1.40301738        0.02277241        1.30692750        0.05936562        0.01155709        0.00239477
       -3.77633596        1.36022342        0.02155982        1.26687887        0.05807863        0.01137663        0.00232947
       -3.76632595        1.31465493        0.02033539        1.22420029        0.05669262        0.01116753        0.00225910
       -3.75631594        1.26709142        0.01911757        1.17962048        0.05523401        0.01093459        0.00218477
       -3.74630593        1.21828851        0.01792332        1.13384671        0.05372825        0.01068265        0.00210757
       -3.73629592        1.16895877        0.01676775        1.08754684        0.05219913        0.01041648        0.00202857
       -3.72628591        1.11975547        0.01566379        1.04133416        0.05066815        0.01014058        0.00194878
       -3.71627590        1.07125974        0.01462207        0.99575531        0.04915413        0.00985909        0.00186914
       -3.70626589        1.02397144        0.01365077        0.95128157        0.04767286        0.00957574        0.00179050
       -3.69625588        0.97830368        0.01275575        0.90830361        0.04623699        0.00929375        0.00171358
       -3.68624587        0.93458097        0.01194057        0.86712952        0.04485605        0.00901580        0.00163903
       -3.67623586        0.89304088        0.01120676        0.82798615        0.04353660        0.00874403        0.00156734
       -3.66622585        0.85383872        0.01055403        0.79102317        0.04228253        0.00848008        0.00149889
       -3.65621584        0.81705491        0.00998055        0.75631981        0.04109546        0.00822511        0.00143398
       -3.64620583        0.78270449        0.00948327        0.72389346        0.03997517        0.00797985        0.00137274
       -3.63619582        0.75074823        0.00905821        0.69370995        0.03892015        0.00774467        0.00131526
       -3.62618581        0.72110468        0.00870076        0.66569465        0.03792807        0.00751969        0.00126151
       -3.61617580        0.69366259        0.00840595        0.63974409        0.03699632        0.00730482        0.00121143
       -3.60616579        0.66829309        0.00816866        0.61573727        0.03612245        0.00709985        0.00116486
       -3.59615578        0.64486097        0.00798379        0.59354639        0.03530459        0.00690455        0.00112165
       -3.58614577        0.62323468        0.00784644        0.57304627        0.03454167        0.00671869        0.00108162
       -3.57613576        0.60329453        0.00775190        0.55412225        0.03383370        0.00654211        0.00104457
       -3.56612575        0.58493885        0.00769579        0.53667614        0.03318182        0.00637478        0.00101032
       -3.55611574        0.56808783        0.00767395        0.52063011        0.03258829        0.00621677        0.00097871
       -3.54610573        0.55268509        0.00768248        0.50592838        0.03205633        0.00606829        0.00094960
       -3.53609572        0.53869705        0.00771762        0.49253690        0.03158996        0.00592969        0.00092289
       -3.52608571        0.52611023        0.00777570        0.48044102        0.03119365        0.00580140        0.00089848
       -3.51607570        0.51492687        0.00785305        0.46964159        0.03087199        0.00568392        0.00087632
       -3.50606569        0.50515923        0.00794597        0.46014976        0.03062933        0.00557778        0.00085638
       -3.49605568        0.49682304        0.00805063        0.45198091        0.03046936        0.00548349        0.00083865
       -3.48604567        0.48993053        0.00816308        0.44514812        0.03039473        0.00540147        0.00082312
       -3.47603566        0.48448359        0.00827925        0.43965576        0.03040673        0.00533206        0.00080979
       -3.46602565        0.48046734        0.00839498        0.43549331        0.03050499        0.00527541        0.00079865
       -3.45601564        0.47784473        0.00850609        0.43263018        0.03068725        0.00523150        0.00078971
       -3.44600563        0.47655217        0.00860844        0.43101144        0.03094924        0.00520012        0.00078292
       -3.43599562        0.47649678        0.00869810        0.43055500        0.03128463        0.00518080        0.00077825
       -3.42598561        0.47755513        0.00877138        0.43115020        0.03168504        0.00517289        0.00077561
       -3.41597560        0.47957374        0.00882499        0.43265810        0.03214023        0.00517550        0.00077492
       -3.40596559        0.48237119        0.00885613        0.43491322        0.03263823        0.00518757        0.00077604
       -3.39595558        0.48574194        0.00886257        0.43772696        0.03316569        0.00520789        0.00077883
       -3.38594557        0.48946153        0.00884274        0.44089236        0.03370820        0.00523513        0.00078310
       -3.37593556        0.49329312        0.00879576        0.44419010        0.03425071        0.00526789        0.00078866
       -3.36592555        0.49699489        0.00872144        0.44739553        0.03477790        0.00530474        0.00079529
       -3.35591554        0.50032828        0.00862025        0.45028626        0.03527473        0.00534427        0.00080275
       -3.34590553        0.50306630        0.00849334        0.45265020        0.03572679        0.00538515        0.00081083
       -3.33589552        0.50500195        0.00834240        0.45429339        0.03612076        0.00542614        0.00081926
       -3.32588551        0.50595592        0.00816962        0.45504753        0.03644485        0.00546612        0.00082781
       -3.31587550        0.50578354        0.00797758        0.45477648        0.03668907        0.00550417        0.00083625
       -3.30586549        0.50438029        0.00776914        0.45338173        0.03684555        0.00553949        0.00084437
       -3.29585548        0.50168578        0.00754737        0.45080619        0.03690874        0.00557150        0.00085197
       -3.28584547        0.49768587        0.00731538        0.44703628        0.03687554        0.00559978        0.00085888
       -3.27583546        0.49241282        0.00707629        0.44210218        0.03674532        0.00562407        0.00086495
       -3.26582545        0.48594344        0.00683314        0.43607607        0.03651990        0.00564426        0.00087006
       -3.25581544        0.47839532        0.00658878        0.42906863        0.03620341        0.00566037        0.00087412
       -3.24580543        0.46992148        0.00634589        0.42122389        0.03580210        0.00567253        0.00087707
       -3.23579542        0.46070362        0.00610691        0.41271283        0.03532408        0.00568092        0.00087888
       -3.22578541        0.45094446        0.00587401        0.40372603        0.03477904        0.00568582        0.00087956
       -3.21577540        0.44085972        0.00564914        0.39446599        0.03417794        0.00568753        0.00087912
       -3.20576539        0.43067003        0.00543401        0.38513938        0.03353265        0.00568638        0.00087761
       -3.19575538        0.42059349        0.00523013        0.37594986        0.03285565        0.00568274        0.00087511
       -3.18574537        0.41083910        0.00503883        0.36709184        0.03215974        0.00567698        0.00087171
       -3.17573536        0.40160157        0.00486135        0.35874540        0.03145778        0.00566953        0.00086751
       -3.16572535        0.39305761        0.00469883        0.35107277        0.03076250        0.00566086        0.00086265
