#  aims_uuid : 34ED089B-8E9C-4626-A65E-7A0C34F4742C                                
#  angular momentum projected density of states for species S as calculated by FHI-aims 
# The energy reference for this output is the chemical potential, mu =      -5.302743 eV
#      Energy (eV)         total dos     l= 0              l= 1              l= 2              l= 3              l= 4
       -4.69725688        1.07547980        0.07917623        0.93519699        0.05404272        0.00645961        0.00060426
       -4.68724687        1.12437709        0.08336405        0.97668066        0.05692964        0.00677010        0.00063265
       -4.67723686        1.17201581        0.08745969        1.01706984        0.05975088        0.00707239        0.00066302
       -4.66722685        1.21803958        0.09143952        1.05605438        0.06248597        0.00736451        0.00069521
       -4.65721684        1.26211027        0.09528081        1.09334105        0.06511480        0.00764460        0.00072901
       -4.64720683        1.30391010        0.09896173        1.12865557        0.06761770        0.00791090        0.00076420
       -4.63719682        1.34314300        0.10246150        1.16174384        0.06997544        0.00816172        0.00080050
       -4.62718681        1.37953552        0.10576038        1.19237264        0.07216939        0.00839551        0.00083760
       -4.61717680        1.41283758        0.10883979        1.22033019        0.07418162        0.00861082        0.00087516
       -4.60716679        1.44282322        0.11168236        1.24542658        0.07599511        0.00880635        0.00091281
       -4.59715678        1.46929157        0.11427201        1.26749445        0.07759403        0.00898094        0.00095014
       -4.58714677        1.49206825        0.11659398        1.28638992        0.07896402        0.00913358        0.00098674
       -4.57713676        1.51100693        0.11863490        1.30199382        0.08009260        0.00926345        0.00102216
       -4.56712675        1.52599126        0.12038277        1.31421311        0.08096949        0.00936994        0.00105595
       -4.55711674        1.53693680        0.12182696        1.32298252        0.08158703        0.00945262        0.00108768
       -4.54710673        1.54379284        0.12295817        1.32826598        0.08194048        0.00951132        0.00111690
       -4.53709672        1.54654391        0.12376841        1.33005792        0.08202831        0.00954605        0.00114322
       -4.52708671        1.54521076        0.12425101        1.32838410        0.08185232        0.00955708        0.00116626
       -4.51707670        1.53985072        0.12440058        1.32330181        0.08141774        0.00954488        0.00118571
       -4.50706669        1.53055725        0.12421314        1.31489952        0.08073315        0.00951014        0.00120130
       -4.49705668        1.51745883        0.12368622        1.30329578        0.07981029        0.00945370        0.00121284
       -4.48704667        1.50071709        0.12281908        1.28863746        0.07866374        0.00937660        0.00122021
       -4.47703666        1.48052445        0.12161300        1.27109756        0.07731055        0.00927999        0.00122335
       -4.46702665        1.45710123        0.12007160        1.25087247        0.07576974        0.00916512        0.00122230
       -4.45701664        1.43069258        0.11820126        1.22817901        0.07406180        0.00903336        0.00121715
       -4.44700663        1.40156522        0.11601149        1.20325144        0.07220813        0.00888608        0.00120807
       -4.43699662        1.37000422        0.11351532        1.17633829        0.07023058        0.00872473        0.00119529
       -4.42698661        1.33630978        0.11072953        1.14769942        0.06815094        0.00855078        0.00117911
       -4.41697660        1.30079407        0.10767490        1.11760308        0.06599055        0.00836568        0.00115986
       -4.40696659        1.26377812        0.10437620        1.08632312        0.06376997        0.00817092        0.00113790
       -4.39695658        1.22558861        0.10086202        1.05413623        0.06150874        0.00796800        0.00111363
       -4.38694657        1.18655461        0.09716442        1.02131913        0.05922520        0.00775840        0.00108747
       -4.37693656        1.14700405        0.09331838        0.98814580        0.05693642        0.00754363        0.00105982
       -4.36692655        1.10726001        0.08936107        0.95488443        0.05465817        0.00732523        0.00103111
       -4.35691654        1.06763677        0.08533092        0.92179447        0.05240493        0.00710473        0.00100173
       -4.34690653        1.02843583        0.08126665        0.88912348        0.05018995        0.00688367        0.00097208
       -4.33689652        0.98994183        0.07720625        0.85710414        0.04802532        0.00666360        0.00094253
       -4.32688651        0.95241888        0.07318587        0.82595146        0.04592207        0.00644606        0.00091341
       -4.31687650        0.91610722        0.06923894        0.79586042        0.04389022        0.00623257        0.00088507
       -4.30686649        0.88122077        0.06539529        0.76700423        0.04193889        0.00602457        0.00085779
       -4.29685648        0.84794563        0.06168052        0.73953349        0.04007629        0.00582348        0.00083185
       -4.28684647        0.81643973        0.05811559        0.71357618        0.03830986        0.00563058        0.00080752
       -4.27683646        0.78683386        0.05471663        0.68923890        0.03664624        0.00544706        0.00078503
       -4.26682645        0.75923395        0.05149498        0.66660905        0.03509133        0.00527398        0.00076462
       -4.25681644        0.73372462        0.04845749        0.64575812        0.03365028        0.00511223        0.00074650
       -4.24680643        0.71037382        0.04560698        0.62674579        0.03232759        0.00496257        0.00073090
       -4.23679642        0.68923816        0.04294291        0.60962460        0.03112706        0.00482557        0.00071802
       -4.22678641        0.67036868        0.04046209        0.59444497        0.03005187        0.00470166        0.00070810
       -4.21677640        0.65381666        0.03815948        0.58126015        0.02910459        0.00459109        0.00070134
       -4.20676639        0.63963903        0.03602896        0.57013083        0.02828725        0.00449403        0.00069797
       -4.19675638        0.62790301        0.03406407        0.56112887        0.02760134        0.00441051        0.00069821
       -4.18674637        0.61868959        0.03225866        0.55434023        0.02704793        0.00434048        0.00070230
       -4.17673636        0.61209566        0.03060732        0.54986640        0.02662763        0.00428387        0.00071044
       -4.16672635        0.60823454        0.02910580        0.54782456        0.02634072        0.00424061        0.00072286
       -4.15671634        0.60723480        0.02775114        0.54834609        0.02618718        0.00421064        0.00073977
       -4.14670633        0.60923732        0.02654172        0.55157358        0.02616670        0.00419399        0.00076134
       -4.13669632        0.61439070        0.02547710        0.55765626        0.02627876        0.00419082        0.00078775
       -4.12668631        0.62284506        0.02455780        0.56674408        0.02652265        0.00420139        0.00081915
       -4.11667630        0.63474457        0.02378487        0.57898047        0.02689746        0.00422615        0.00085563
       -4.10666629        0.65021868        0.02315952        0.59449416        0.02740204        0.00426569        0.00089727
       -4.09665628        0.66937260        0.02268259        0.61339012        0.02803502        0.00432078        0.00094409
       -4.08664627        0.69227725        0.02235407        0.63574015        0.02879463        0.00439234        0.00099605
       -4.07663626        0.71895904        0.02217261        0.66157331        0.02967867        0.00448138        0.00105307
       -4.06662625        0.74938995        0.02213509        0.69086663        0.03068426        0.00458900        0.00111498
       -4.05661624        0.78347831        0.02223628        0.72353654        0.03180769        0.00471626        0.00118154
       -4.04660623        0.82106085        0.02246855        0.75943151        0.03304415        0.00486419        0.00125246
       -4.03659622        0.86189644        0.02282171        0.79832630        0.03438750        0.00503362        0.00132731
       -4.02658621        0.90566201        0.02328299        0.83991827        0.03583000        0.00522514        0.00140562
       -4.01657620        0.95195117        0.02383711        0.88382622        0.03736203        0.00543901        0.00148681
       -4.00656619        1.00027580        0.02446650        0.92959216        0.03897192        0.00567504        0.00157019
       -3.99655618        1.05007096        0.02515163        0.97668601        0.04064577        0.00593256        0.00165500
       -3.98654617        1.10070319        0.02587144        1.02451367        0.04236737        0.00621031        0.00174040
       -3.97653616        1.15148222        0.02660390        1.07242819        0.04411823        0.00650644        0.00182546
       -3.96652615        1.20167574        0.02732655        1.11974380        0.04587772        0.00681847        0.00190921
       -3.95651614        1.25052696        0.02801719        1.16575253        0.04762330        0.00714331        0.00199062
       -3.94650613        1.29727424        0.02865451        1.20974278        0.04933097        0.00747731        0.00206867
       -3.93649612        1.34117198        0.02921872        1.25101897        0.05097572        0.00781629        0.00214229
       -3.92648611        1.38151207        0.02969210        1.28892166        0.05253215        0.00815567        0.00221049
       -3.91647610        1.41764465        0.03005958        1.32284701        0.05397519        0.00849056        0.00227230
       -3.90646609        1.44899747        0.03030908        1.35226485        0.05528079        0.00881590        0.00232686
       -3.89645608        1.47509277        0.03043180        1.37673427        0.05642672        0.00912660        0.00237338
       -3.88644607        1.49556086        0.03042244        1.39591625        0.05739324        0.00941770        0.00241122
       -3.87643606        1.51014988        0.03027914        1.40958250        0.05816385        0.00968449        0.00243990
       -3.86642605        1.51873116        0.03000346        1.41762016        0.05872578        0.00992267        0.00245908
       -3.85641604        1.52130007        0.02960010        1.42003238        0.05907050        0.01012850        0.00246860
       -3.84640603        1.51797236        0.02907658        1.41693448        0.05919398        0.01029885        0.00246847
       -3.83639602        1.50897629        0.02844284        1.40854636        0.05909686        0.01043134        0.00245889
       -3.82638601        1.49464112        0.02771076        1.39518132        0.05878443        0.01052438        0.00244022
       -3.81637600        1.47538239        0.02689369        1.37723213        0.05826640        0.01057721        0.00241296
       -3.80636599        1.45168513        0.02600589        1.35515499        0.05755661        0.01058988        0.00237776
       -3.79635598        1.42408555        0.02506205        1.32945233        0.05667250        0.01056326        0.00233540
       -3.78634597        1.39315223        0.02407688        1.30065504        0.05563460        0.01049900        0.00228672
       -3.77633596        1.35946769        0.02306464        1.26930522        0.05446578        0.01039942        0.00223264
       -3.76632595        1.32361092        0.02203886        1.23593990        0.05319058        0.01026746        0.00217412
       -3.75631594        1.28614171        0.02101204        1.20107651        0.05183447        0.01010656        0.00211213
       -3.74630593        1.24758718        0.01999550        1.16520042        0.05042306        0.00992058        0.00204762
       -3.73629592        1.20843088        0.01899921        1.12875507        0.04898147        0.00971361        0.00198151
       -3.72628591        1.16910463        0.01803179        1.09213466        0.04753359        0.00948994        0.00191465
       -3.71627590        1.12998337        0.01710046        1.05567966        0.04610158        0.00925384        0.00184783
       -3.70626589        1.09138265        0.01621114        1.01967493        0.04470531        0.00900953        0.00178175
       -3.69625588        1.05355888        0.01536847        0.98435034        0.04336206        0.00876103        0.00171698
       -3.68624587        1.01671186        0.01457595        0.94988363        0.04208616        0.00851208        0.00165404
       -3.67623586        0.98098943        0.01383603        0.91640514        0.04088892        0.00826605        0.00159330
       -3.66622585        0.94649371        0.01315021        0.88400403        0.03977850        0.00802590        0.00153506
       -3.65621584        0.91328845        0.01251916        0.85273557        0.03876009        0.00779413        0.00147950
       -3.64620583        0.88140724        0.01194279        0.82262897        0.03783600        0.00757274        0.00142674
       -3.63619582        0.85086179        0.01142035        0.79369540        0.03700597        0.00736327        0.00137680
       -3.62618581        0.82165005        0.01095048        0.76593567        0.03626749        0.00716676        0.00132966
       -3.61617580        0.79376368        0.01053128        0.73934711        0.03561623        0.00698384        0.00128522
       -3.60616579        0.76719435        0.01016034        0.71392944        0.03504644        0.00681475        0.00124339
       -3.59615578        0.74193880        0.00983480        0.68968918        0.03455142        0.00665938        0.00120402
       -3.58614577        0.71800227        0.00955139        0.66664259        0.03412396        0.00651736        0.00116697
       -3.57613576        0.69540022        0.00930647        0.64481682        0.03375669        0.00638813        0.00113210
       -3.56612575        0.67415847        0.00909607        0.62424959        0.03344252        0.00627099        0.00109929
       -3.55611574        0.65431173        0.00891600        0.60498727        0.03317486        0.00616517        0.00106843
       -3.54610573        0.63590084        0.00876186        0.58708180        0.03294786        0.00606988        0.00103944
       -3.53609572        0.61896897        0.00862916        0.57058662        0.03275655        0.00598438        0.00101226
       -3.52608571        0.60355720        0.00851340        0.55555205        0.03259691        0.00590797        0.00098687
       -3.51607570        0.58969985        0.00841017        0.54202053        0.03246582        0.00584008        0.00096325
       -3.50606569        0.57741990        0.00831523        0.53002203        0.03236101        0.00578021        0.00094143
       -3.49605568        0.56672492        0.00822459        0.51957000        0.03228091        0.00572799        0.00092143
       -3.48604567        0.55760372        0.00813463        0.51065817        0.03222450        0.00568314        0.00090329
       -3.47603566        0.55002408        0.00804215        0.50325831        0.03219111        0.00564547        0.00088704
       -3.46602565        0.54393146        0.00794443        0.49731920        0.03218027        0.00561484        0.00087273
       -3.45601564        0.53924891        0.00783924        0.49276669        0.03219147        0.00559114        0.00086038
       -3.44600563        0.53587804        0.00772491        0.48950479        0.03222407        0.00557428        0.00084999
       -3.43599562        0.53370094        0.00760028        0.48741780        0.03227718        0.00556414        0.00084155
       -3.42598561        0.53258291        0.00746469        0.48637313        0.03234951        0.00556054        0.00083503
       -3.41597560        0.53237578        0.00731797        0.48622474        0.03243942        0.00556327        0.00083037
       -3.40596559        0.53292152        0.00716032        0.48681685        0.03254485        0.00557201        0.00082750
       -3.39595558        0.53405612        0.00699231        0.48798784        0.03266335        0.00558633        0.00082629
       -3.38594557        0.53561340        0.00681480        0.48957411        0.03279212        0.00560574        0.00082663
       -3.37593556        0.53742861        0.00662883        0.49141371        0.03292808        0.00562963        0.00082836
       -3.36592555        0.53934180        0.00643561        0.49334968        0.03306789        0.00565729        0.00083134
       -3.35591554        0.54120073        0.00623639        0.49523302        0.03320801        0.00568794        0.00083537
       -3.34590553        0.54286336        0.00603250        0.49692513        0.03334474        0.00572072        0.00084028
       -3.33589552        0.54419989        0.00582520        0.49829986        0.03347421        0.00575474        0.00084588
       -3.32588551        0.54509429        0.00561576        0.49924510        0.03359241        0.00578905        0.00085197
       -3.31587550        0.54544536        0.00540534        0.49966379        0.03369518        0.00582268        0.00085837
       -3.30586549        0.54516746        0.00519507        0.49947465        0.03377818        0.00585467        0.00086489
       -3.29585548        0.54419072        0.00498596        0.49861242        0.03383691        0.00588410        0.00087133
       -3.28584547        0.54246105        0.00477899        0.49702780        0.03386668        0.00591004        0.00087753
       -3.27583546        0.53993982        0.00457506        0.49468706        0.03386272        0.00593166        0.00088331
       -3.26582545        0.53660339        0.00437501        0.49157150        0.03382020        0.00594816        0.00088852
       -3.25581544        0.53244252        0.00417964        0.48767666        0.03373435        0.00595886        0.00089301
       -3.24580543        0.52746172        0.00398972        0.48301151        0.03360068        0.00596315        0.00089666
       -3.23579542        0.52167862        0.00380600        0.47759760        0.03341513        0.00596056        0.00089934
       -3.22578541        0.51512350        0.00362918        0.47146821        0.03317439        0.00595075        0.00090098
       -3.21577540        0.50783879        0.00345994        0.46466773        0.03287610        0.00593352        0.00090150
       -3.20576539        0.49987890        0.00329896        0.45725098        0.03251923        0.00590885        0.00090088
       -3.19575538        0.49131009        0.00314687        0.44928292        0.03210429        0.00587689        0.00089912
       -3.18574537        0.48221051        0.00300428        0.44083834        0.03163363        0.00583801        0.00089626
       -3.17573536        0.47267035        0.00287181        0.43200180        0.03111163        0.00579274        0.00089237
       -3.16572535        0.46279203        0.00275004        0.42286768        0.03054487        0.00574186        0.00088758
