#  aims_uuid : 34ED089B-8E9C-4626-A65E-7A0C34F4742C                                
#  angular momentum projected density of states for species Mo as calculated by FHI-aims 
# The energy reference for this output is the chemical potential, mu =      -5.302743 eV
#      Energy (eV)         total dos     l= 0              l= 1              l= 2              l= 3              l= 4
       -4.69725688        1.03113146        0.04793660        0.15355799        0.81681855        0.01108462        0.00173370
       -4.68724687        1.07813309        0.05390530        0.16320010        0.84752562        0.01167152        0.00183055
       -4.67723686        1.12377518        0.06028173        0.17291474        0.87637806        0.01227489        0.00192577
       -4.66722685        1.16769128        0.06703356        0.18261207        0.90313674        0.01289017        0.00201874
       -4.65721684        1.20953332        0.07411666        0.19219486        0.92760041        0.01351254        0.00210885
       -4.64720683        1.24897259        0.08147494        0.20155933        0.94960594        0.01413690        0.00219548
       -4.63719682        1.28570004        0.08904071        0.21059625        0.96902712        0.01475796        0.00227801
       -4.62718681        1.31942630        0.09673542        0.21919242        0.98577236        0.01537030        0.00235580
       -4.61717680        1.34988190        0.10447107        0.22723255        0.99978167        0.01596838        0.00242823
       -4.60716679        1.37681818        0.11215200        0.23460157        1.01102330        0.01654665        0.00249467
       -4.59715678        1.40000913        0.11967715        0.24118727        1.01949060        0.01709959        0.00255452
       -4.58714677        1.41925436        0.12694281        0.24688337        1.02519917        0.01762181        0.00260720
       -4.57713676        1.43438304        0.13384543        0.25159270        1.02818462        0.01810813        0.00265217
       -4.56712675        1.44525878        0.14028470        0.25523052        1.02850092        0.01855367        0.00268897
       -4.55711674        1.45178487        0.14616660        0.25772767        1.02621941        0.01895398        0.00271720
       -4.54710673        1.45390959        0.15140617        0.25903349        1.02142823        0.01930511        0.00273658
       -4.53709672        1.45163088        0.15593013        0.25911819        1.01423193        0.01960372        0.00274691
       -4.52708671        1.44499995        0.15967889        0.25797460        1.00475117        0.01984715        0.00274814
       -4.51707670        1.43412329        0.16260818        0.25561911        0.99312219        0.02003350        0.00274031
       -4.50706669        1.41916277        0.16468998        0.25209170        0.97949581        0.02016165        0.00272363
       -4.49705668        1.40033362        0.16591287        0.24745506        0.96403598        0.02023132        0.00269839
       -4.48704667        1.37790036        0.16628173        0.24179287        0.94691769        0.02024304        0.00266504
       -4.47703666        1.35217070        0.16581694        0.23520710        0.92832443        0.02019812        0.00262411
       -4.46702665        1.32348793        0.16455304        0.22781486        0.90844518        0.02009864        0.00257621
       -4.45701664        1.29222214        0.16253696        0.21974455        0.88747123        0.01994735        0.00252205
       -4.44700663        1.25876082        0.15982605        0.21113180        0.86559295        0.01974763        0.00246239
       -4.43699662        1.22349942        0.15648589        0.20211534        0.84299679        0.01950339        0.00239801
       -4.42698661        1.18683237        0.15258810        0.19283294        0.81986263        0.01921897        0.00232972
       -4.41697660        1.14914498        0.14820809        0.18341766        0.79636182        0.01889907        0.00225834
       -4.40696659        1.11080662        0.14342309        0.17399454        0.77265566        0.01854866        0.00218467
       -4.39695658        1.07216529        0.13831026        0.16467790        0.74889480        0.01817284        0.00210950
       -4.38694657        1.03354379        0.13294510        0.15556924        0.72521909        0.01777680        0.00203356
       -4.37693656        0.99523734        0.12740013        0.14675574        0.70175820        0.01736571        0.00195757
       -4.36692655        0.95751263        0.12174379        0.13830952        0.67863251        0.01694462        0.00188219
       -4.35691654        0.92060802        0.11603967        0.13028739        0.65595452        0.01651840        0.00180804
       -4.34690653        0.88473478        0.11034590        0.12273126        0.63383032        0.01609163        0.00173568
       -4.33689652        0.85007905        0.10471483        0.11566884        0.61236119        0.01566856        0.00166563
       -4.32688651        0.81680429        0.09919282        0.10911489        0.59164519        0.01525304        0.00159835
       -4.31687650        0.78505415        0.09382019        0.10307263        0.57177862        0.01484845        0.00153427
       -4.30686649        0.75495554        0.08863127        0.09753539        0.55285741        0.01445771        0.00147375
       -4.29685648        0.72662168        0.08365457        0.09248841        0.53497829        0.01408327        0.00141715
       -4.28684647        0.70015527        0.07891288        0.08791067        0.51823986        0.01372710        0.00136475
       -4.27683646        0.67565144        0.07442357        0.08377675        0.50274353        0.01339073        0.00131686
       -4.26682645        0.65320061        0.07019872        0.08005861        0.48859422        0.01307534        0.00127373
       -4.25681644        0.63289114        0.06624543        0.07672732        0.47590095        0.01278180        0.00123563
       -4.24680643        0.61481156        0.06256603        0.07375464        0.46477726        0.01251079        0.00120283
       -4.23679642        0.59905257        0.05915833        0.07111446        0.45534132        0.01226284        0.00117563
       -4.22678641        0.58570853        0.05601591        0.06878400        0.44771579        0.01203847        0.00115435
       -4.21677640        0.57487837        0.05312847        0.06674488        0.44202743        0.01183823        0.00113936
       -4.20676639        0.56666610        0.05048218        0.06498382        0.43840621        0.01166282        0.00113107
       -4.19675638        0.56118060        0.04806013        0.06349323        0.43698421        0.01151306        0.00112997
       -4.18674637        0.55853490        0.04584287        0.06227144        0.43789400        0.01138998        0.00113661
       -4.17673636        0.55884485        0.04380900        0.06132271        0.44126675        0.01129478        0.00115161
       -4.16672635        0.56222736        0.04193586        0.06065700        0.44723001        0.01122883        0.00117566
       -4.15671634        0.56879801        0.04020024        0.06028947        0.45590519        0.01119359        0.00120952
       -4.14670633        0.57866840        0.03857920        0.06023982        0.46740479        0.01119058        0.00125401
       -4.13669632        0.59194300        0.03705083        0.06053138        0.48182951        0.01122129        0.00130999
       -4.12668631        0.60871566        0.03559498        0.06119013        0.49926510        0.01128710        0.00137836
       -4.11667630        0.62906582        0.03419399        0.06224347        0.51977918        0.01138917        0.00146001
       -4.10666629        0.65305426        0.03283321        0.06371902        0.54341781        0.01152840        0.00155581
       -4.09665628        0.68071851        0.03150145        0.06564319        0.57020196        0.01170530        0.00166660
       -4.08664627        0.71206787        0.03019121        0.06803981        0.60012379        0.01191996        0.00179310
       -4.07663626        0.74707801        0.02889872        0.07092866        0.63314277        0.01217195        0.00193591
       -4.06662625        0.78568528        0.02762384        0.07432398        0.66918174        0.01246027        0.00209545
       -4.05661624        0.82778082        0.02636965        0.07823308        0.70812284        0.01278331        0.00227194
       -4.04660623        0.87320464        0.02514203        0.08265486        0.74980364        0.01313879        0.00246532
       -4.03659622        0.92174000        0.02394893        0.08757858        0.79401350        0.01352376        0.00267524
       -4.02658621        0.97310848        0.02279976        0.09298268        0.84049051        0.01393454        0.00290099
       -4.01657620        1.02696598        0.02170453        0.09883390        0.88891931        0.01436674        0.00314151
       -4.00656619        1.08290037        0.02067312        0.10508661        0.93893003        0.01481528        0.00339533
       -3.99655618        1.14043094        0.01971462        0.11168256        0.99009879        0.01527440        0.00366057
       -3.98654617        1.19901033        0.01883663        0.11855106        1.04194996        0.01573774        0.00393495
       -3.97653616        1.25802907        0.01804486        0.12560955        1.09396045        0.01619840        0.00421581
       -3.96652615        1.31682303        0.01734274        0.13276483        1.14556625        0.01664911        0.00450010
       -3.95651614        1.37468384        0.01673122        0.13991465        1.19617114        0.01708233        0.00478449
       -3.94650613        1.43087208        0.01620877        0.14694995        1.24515752        0.01749047        0.00506537
       -3.93649612        1.48463306        0.01577143        0.15375747        1.29189915        0.01786603        0.00533898
       -3.92648611        1.53521457        0.01541306        0.16022270        1.33577545        0.01820190        0.00560146
       -3.91647610        1.58188606        0.01512566        0.16623316        1.37618673        0.01849152        0.00584899
       -3.90646609        1.62395835        0.01489970        0.17168169        1.41257000        0.01872911        0.00607785
       -3.89645608        1.66080324        0.01472459        0.17646978        1.44441438        0.01890993        0.00628457
       -3.88644607        1.69187186        0.01458911        0.18051057        1.47127581        0.01903038        0.00646598
       -3.87643606        1.71671107        0.01448178        0.18373162        1.49279008        0.01908820        0.00661939
       -3.86642605        1.73497714        0.01439134        0.18607701        1.50868368        0.01908253        0.00674258
       -3.85641604        1.74644597        0.01430704        0.18750900        1.51878201        0.01901397        0.00683395
       -3.84640603        1.75101937        0.01421900        0.18800883        1.52301443        0.01888459        0.00689252
       -3.83639602        1.74872722        0.01411847        0.18757694        1.52141602        0.01869782        0.00691797
       -3.82638601        1.73972524        0.01399800        0.18623243        1.51412580        0.01845836        0.00691065
       -3.81637600        1.72428871        0.01385167        0.18401187        1.50138163        0.01817199        0.00687156
       -3.80636599        1.70280231        0.01367510        0.18096757        1.48351193        0.01784541        0.00680230
       -3.79635598        1.67574655        0.01346559        0.17716538        1.46092459        0.01748596        0.00670503
       -3.78634597        1.64368162        0.01322209        0.17268218        1.43409362        0.01710140        0.00658234
       -3.77633596        1.60722922        0.01294515        0.16760322        1.40354400        0.01669964        0.00643722
       -3.76632595        1.56705318        0.01263683        0.16201938        1.36983555        0.01628851        0.00627291
       -3.75631594        1.52383980        0.01230059        0.15602454        1.33354638        0.01587548        0.00609282
       -3.74630593        1.47827859        0.01194108        0.14971305        1.29525659        0.01546748        0.00590039
       -3.73629592        1.43104421        0.01156394        0.14317758        1.25553294        0.01507072        0.00569902
       -3.72628591        1.38278024        0.01117556        0.13650716        1.21491504        0.01469049        0.00549199
       -3.71627590        1.33408528        0.01078278        0.12978564        1.17390345        0.01433110        0.00528231
       -3.70626589        1.28550182        0.01039263        0.12309046        1.13295021        0.01399579        0.00507273
       -3.69625588        1.23750821        0.01001205        0.11649182        1.09245198        0.01368670        0.00486565
       -3.68624587        1.19051361        0.00964762        0.11005207        1.05274593        0.01340490        0.00466308
       -3.67623586        1.14485625        0.00930527        0.10382554        1.01410833        0.01315045        0.00446667
       -3.66622585        1.10080446        0.00899013        0.09785851        0.97675572        0.01292246        0.00427764
       -3.65621584        1.05856043        0.00870635        0.09218941        0.94084848        0.01271930        0.00409689
       -3.64620583        1.01826624        0.00845696        0.08684932        0.90649634        0.01253868        0.00392494
       -3.63619582        0.98001150        0.00824387        0.08186240        0.87376534        0.01237786        0.00376203
       -3.62618581        0.94384239        0.00806782        0.07724660        0.84268595        0.01223386        0.00360816
       -3.61617580        0.90977110        0.00792848        0.07301432        0.81326159        0.01210361        0.00346310
       -3.60616579        0.87778545        0.00782449        0.06917312        0.78547716        0.01198416        0.00332651
       -3.59615578        0.84785796        0.00775367        0.06572640        0.75930709        0.01187286        0.00319795
       -3.58614577        0.81995381        0.00771308        0.06267400        0.73472233        0.01176747        0.00307693
       -3.57613576        0.79403754        0.00769926        0.06001281        0.71169621        0.01166629        0.00296298
       -3.56612575        0.77007794        0.00770835        0.05773716        0.69020858        0.01156823        0.00285563
       -3.55611574        0.74805117        0.00773626        0.05583915        0.67024842        0.01147284        0.00275451
       -3.54610573        0.72794196        0.00777881        0.05430890        0.65181465        0.01138030        0.00265930
       -3.53609572        0.70974300        0.00783183        0.05313459        0.63491546        0.01129136        0.00256976
       -3.52608571        0.69345290        0.00789126        0.05230248        0.61956615        0.01120727        0.00248575
       -3.51607570        0.67907274        0.00795320        0.05179677        0.60578595        0.01112964        0.00240717
       -3.50606569        0.66660186        0.00801399        0.05159949        0.59359404        0.01106033        0.00233401
       -3.49605568        0.65603323        0.00807024        0.05169028        0.58300518        0.01100126        0.00226627
       -3.48604567        0.64734871        0.00811879        0.05204624        0.57402541        0.01095427        0.00220399
       -3.47603566        0.64051475        0.00815682        0.05264179        0.56664798        0.01092095        0.00214720
       -3.46602565        0.63547891        0.00818177        0.05344868        0.56085001        0.01090252        0.00209593
       -3.45601564        0.63216729        0.00819140        0.05443601        0.55659003        0.01089969        0.00205017
       -3.44600563        0.63048321        0.00818379        0.05557044        0.55380657        0.01091256        0.00200985
       -3.43599562        0.63030732        0.00815739        0.05681655        0.55241791        0.01094058        0.00197489
       -3.42598561        0.63149885        0.00811097        0.05813730        0.55232295        0.01098250        0.00194514
       -3.41597560        0.63389825        0.00804372        0.05949461        0.55340317        0.01103637        0.00192039
       -3.40596559        0.63733079        0.00795520        0.06085011        0.55552548        0.01109961        0.00190039
       -3.39595558        0.64161107        0.00784540        0.06216586        0.55854584        0.01116911        0.00188485
       -3.38594557        0.64654801        0.00771472        0.06340521        0.56231334        0.01124128        0.00187346
       -3.37593556        0.65195018        0.00756395        0.06453359        0.56667455        0.01131224        0.00186586
       -3.36592555        0.65763098        0.00739427        0.06551926        0.57147781        0.01137797        0.00186168
       -3.35591554        0.66341356        0.00720719        0.06633403        0.57657733        0.01143447        0.00186055
       -3.34590553        0.66913510        0.00700451        0.06695379        0.58183676        0.01147793        0.00186211
       -3.33589552        0.67465034        0.00678829        0.06735896        0.58713216        0.01150494        0.00186598
       -3.32588551        0.67983408        0.00656073        0.06753478        0.59235415        0.01151260        0.00187181
       -3.31587550        0.68458270        0.00632414        0.06747141        0.59740922        0.01149865        0.00187929
       -3.30586549        0.68881461        0.00608084        0.06716392        0.60222015        0.01146162        0.00188808
       -3.29585548        0.69246975        0.00583313        0.06661217        0.60672568        0.01140085        0.00189791
       -3.28584547        0.69550812        0.00558321        0.06582055        0.61087931        0.01131654        0.00190850
       -3.27583546        0.69790773        0.00533313        0.06479764        0.61464761        0.01120973        0.00191962
       -3.26582545        0.69966195        0.00508476        0.06355587        0.61800804        0.01108225        0.00193104
       -3.25581544        0.70077668        0.00483977        0.06211112        0.62094661        0.01093662        0.00194256
       -3.24580543        0.70126745        0.00459962        0.06048240        0.62345549        0.01077596        0.00195398
       -3.23579542        0.70115680        0.00436555        0.05869141        0.62553086        0.01060383        0.00196516
       -3.22578541        0.70047203        0.00413859        0.05676230        0.62717112        0.01042409        0.00197592
       -3.21577540        0.69924365        0.00391962        0.05472138        0.62837577        0.01024073        0.00198615
       -3.20576539        0.69750447        0.00370934        0.05259685        0.62914482        0.01005775        0.00199571
       -3.19575538        0.69528958        0.00350834        0.05041863        0.62947910        0.00987901        0.00200451
       -3.18574537        0.69263704        0.00331710        0.04821810        0.62938126        0.00970811        0.00201247
       -3.17573536        0.68958931        0.00313607        0.04602794        0.62885739        0.00954837        0.00201954
       -3.16572535        0.68619532        0.00296564        0.04388190        0.62791936        0.00940271        0.00202570
