#  aims_uuid : 34ED089B-8E9C-4626-A65E-7A0C34F4742C                                
#  angular momentum projected density of states for species S as calculated by FHI-aims 
# The energy reference for this output is the vacuum level =       0.000000 eV
#      Energy (eV)         total dos     l= 0              l= 1              l= 2              l= 3              l= 4
      -10.00000000        0.98041271        0.07699615        0.84323061        0.05355696        0.00605260        0.00057638
       -9.98998999        1.03566972        0.08190888        0.89024571        0.05656394        0.00634362        0.00060758
       -9.97997998        1.09115512        0.08679880        0.93756963        0.05951963        0.00662673        0.00064033
       -9.96996997        1.14639575        0.09162039        0.98480167        0.06239939        0.00689993        0.00067437
       -9.95995996        1.20090081        0.09632665        1.03152418        0.06517917        0.00716140        0.00070940
       -9.94994995        1.25416748        0.10086989        1.07730717        0.06783581        0.00740951        0.00074510
       -9.93993994        1.30568690        0.10520264        1.12171298        0.07034734        0.00764283        0.00078112
       -9.92992993        1.35495045        0.10927856        1.16430142        0.07269322        0.00786015        0.00081710
       -9.91991992        1.40145656        0.11305350        1.20463532        0.07485461        0.00806048        0.00085265
       -9.90990991        1.44471817        0.11648646        1.24228676        0.07681455        0.00824302        0.00088739
       -9.89989990        1.48427064        0.11954055        1.27684384        0.07855816        0.00840716        0.00092093
       -9.88988989        1.51968026        0.12218393        1.30791809        0.08007288        0.00855250        0.00095286
       -9.87987988        1.55055293        0.12439048        1.33515225        0.08134862        0.00867877        0.00098281
       -9.86986987        1.57654283        0.12614050        1.35822821        0.08237785        0.00878587        0.00101040
       -9.85985986        1.59736065        0.12742100        1.37687479        0.08315574        0.00887383        0.00103529
       -9.84984985        1.61278099        0.12822598        1.39087490        0.08368018        0.00894279        0.00105715
       -9.83983984        1.62264843        0.12855626        1.40007176        0.08395172        0.00899297        0.00107571
       -9.82982983        1.62688194        0.12841932        1.40437367        0.08397352        0.00902469        0.00109075
       -9.81981982        1.62547721        0.12782867        1.40375703        0.08375110        0.00903831        0.00110209
       -9.80980981        1.61850678        0.12680327        1.39826746        0.08329219        0.00903422        0.00110964
       -9.79979980        1.60611787        0.12536666        1.38801867        0.08260633        0.00901285        0.00111336
       -9.78978979        1.58852791        0.12354607        1.37318931        0.08170462        0.00897462        0.00111328
       -9.77977978        1.56601815        0.12137148        1.35401787        0.08059929        0.00891999        0.00110952
       -9.76976977        1.53892554        0.11887465        1.33079578        0.07930344        0.00884940        0.00110226
       -9.75975976        1.50763338        0.11608833        1.30385933        0.07783066        0.00876332        0.00109174
       -9.74974975        1.47256133        0.11304546        1.27358057        0.07619481        0.00866225        0.00107825
       -9.73973974        1.43415512        0.10977856        1.24035787        0.07440981        0.00854672        0.00106216
       -9.72972973        1.39287657        0.10631934        1.20460650        0.07248957        0.00841734        0.00104383
       -9.71971972        1.34919434        0.10269832        1.16674962        0.07044792        0.00827482        0.00102367
       -9.70970971        1.30357558        0.09894478        1.12721007        0.06829867        0.00811996        0.00100209
       -9.69969970        1.25647883        0.09508669        1.08640319        0.06605572        0.00795372        0.00097951
       -9.68968969        1.20834824        0.09115084        1.04473076        0.06373313        0.00777720        0.00095631
       -9.67967968        1.15960896        0.08716295        1.00257617        0.06134535        0.00759163        0.00093286
       -9.66966967        1.11066381        0.08314790        0.96030072        0.05890724        0.00739844        0.00090951
       -9.65965966        1.06189083        0.07912982        0.91824107        0.05643422        0.00719918        0.00088655
       -9.64964965        1.01364181        0.07513226        0.87670753        0.05394229        0.00699550        0.00086423
       -9.63963964        0.96624133        0.07117819        0.83598325        0.05144795        0.00678918        0.00084277
       -9.62962963        0.91998637        0.06728995        0.79632396        0.04896810        0.00658202        0.00082233
       -9.61961962        0.87514632        0.06348912        0.75795838        0.04651990        0.00637586        0.00080306
       -9.60960961        0.83196321        0.05979628        0.72108894        0.04412046        0.00617248        0.00078505
       -9.59959960        0.79065234        0.05623069        0.68589303        0.04178664        0.00597360        0.00076838
       -9.58958959        0.75140312        0.05280999        0.65252448        0.03953470        0.00578084        0.00075311
       -9.57957958        0.71438032        0.04954979        0.62111554        0.03738004        0.00559566        0.00073929
       -9.56956957        0.67972564        0.04646335        0.59177901        0.03533691        0.00541939        0.00072698
       -9.55955956        0.64755970        0.04356128        0.56461079        0.03341823        0.00525317        0.00071623
       -9.54954955        0.61798442        0.04085128        0.53969263        0.03163540        0.00509798        0.00070713
       -9.53953954        0.59108574        0.03833806        0.51709506        0.02999821        0.00495464        0.00069978
       -9.52952953        0.56693668        0.03602328        0.49688045        0.02851480        0.00482386        0.00069429
       -9.51951952        0.54560044        0.03390565        0.47910599        0.02719174        0.00470624        0.00069083
       -9.50950951        0.52713366        0.03198116        0.46382655        0.02603408        0.00460229        0.00068958
       -9.49949950        0.51158947        0.03024338        0.45109725        0.02504556        0.00451254        0.00069074
       -9.48948949        0.49902026        0.02868387        0.44097561        0.02422872        0.00443750        0.00069457
       -9.47947948        0.48948000        0.02729267        0.43352316        0.02358512        0.00437773        0.00070130
       -9.46946947        0.48302594        0.02605877        0.42880645        0.02311559        0.00433390        0.00071123
       -9.45945946        0.47971964        0.02497064        0.42689731        0.02282030        0.00430677        0.00072463
       -9.44944945        0.47962719        0.02401673        0.42787244        0.02269901        0.00429722        0.00074179
       -9.43943944        0.48281847        0.02318590        0.43181216        0.02275114        0.00430627        0.00076300
       -9.42942943        0.48936565        0.02246780        0.43879842        0.02297583        0.00433507        0.00078852
       -9.41941942        0.49934058        0.02185319        0.44891199        0.02337195        0.00438484        0.00081861
       -9.40940941        0.51281141        0.02133405        0.46222895        0.02393805        0.00445689        0.00085348
       -9.39939940        0.52983822        0.02090374        0.47881640        0.02467227        0.00455251        0.00089330
       -9.38938939        0.55046777        0.02055691        0.49872753        0.02557218        0.00467295        0.00093820
       -9.37937938        0.57472757        0.02028942        0.52199601        0.02663459        0.00481931        0.00098824
       -9.36936937        0.60261921        0.02009811        0.54862995        0.02785528        0.00499246        0.00104341
       -9.35935936        0.63411122        0.01998053        0.57860535        0.02922881        0.00519294        0.00110358
       -9.34934935        0.66913173        0.01993462        0.61185944        0.03074820        0.00542089        0.00116857
       -9.33933934        0.70756101        0.01995834        0.64828401        0.03240470        0.00567591        0.00123805
       -9.32932933        0.74922454        0.02004933        0.68771906        0.03418753        0.00595703        0.00131158
       -9.31931932        0.79388672        0.02020456        0.72994720        0.03608373        0.00626260        0.00138863
       -9.30930931        0.84124591        0.02042007        0.77468910        0.03807797        0.00659028        0.00146850
       -9.29929930        0.89093105        0.02069067        0.82160049        0.04015251        0.00693699        0.00155039
       -9.28928929        0.94250052        0.02100987        0.87027106        0.04228722        0.00729896        0.00163340
       -9.27927928        0.99544345        0.02136973        0.92022574        0.04445970        0.00767176        0.00171652
       -9.26926927        1.04918395        0.02176089        0.97092854        0.04664545        0.00805040        0.00179867
       -9.25925926        1.10308841        0.02217273        1.02178928        0.04881829        0.00842941        0.00187872
       -9.24924925        1.15647582        0.02259350        1.07217313        0.05095069        0.00880300        0.00195551
       -9.23923924        1.20863110        0.02301064        1.12141295        0.05301437        0.00916524        0.00202790
       -9.22922923        1.25882106        0.02341112        1.16882403        0.05498085        0.00951023        0.00209482
       -9.21921922        1.30631235        0.02378181        1.21372088        0.05682215        0.00983226        0.00215526
       -9.20920921        1.35039096        0.02410989        1.25543528        0.05851143        0.01012604        0.00220832
       -9.19919920        1.39038218        0.02438329        1.29333505        0.06002377        0.01038681        0.00225327
       -9.18918919        1.42567035        0.02459108        1.32684247        0.06133676        0.01061052        0.00228952
       -9.17917918        1.45571732        0.02472384        1.35545165        0.06243120        0.01079394        0.00231669
       -9.16916917        1.48007880        0.02477397        1.37874392        0.06329158        0.01093474        0.00233459
       -9.15915916        1.49841776        0.02473590        1.39640055        0.06390656        0.01103154        0.00234320
       -9.14914915        1.51051430        0.02460629        1.40821211        0.06426928        0.01108390        0.00234272
       -9.13913914        1.51627149        0.02438410        1.41408409        0.06437749        0.01109231        0.00233351
       -9.12912913        1.51571682        0.02407052        1.41403848        0.06423362        0.01105809        0.00231610
       -9.11911912        1.50899947        0.02366897        1.40821133        0.06384466        0.01098338        0.00229112
       -9.10910911        1.49638338        0.02318484        1.39684636        0.06322188        0.01087095        0.00225935
       -9.09909910        1.47823664        0.02262535        1.38028510        0.06238048        0.01072412        0.00222159
       -9.08908909        1.45501764        0.02199919        1.35895405        0.06133905        0.01054662        0.00217873
       -9.07907908        1.42725884        0.02131625        1.33334940        0.06011905        0.01034248        0.00213165
       -9.06906907        1.39554871        0.02058728        1.30402016        0.05874414        0.01011589        0.00208124
       -9.05905906        1.36051280        0.01982351        1.27155034        0.05723950        0.00987110        0.00202835
       -9.04904905        1.32279464        0.01903637        1.23654104        0.05563114        0.00961232        0.00197378
       -9.03903904        1.28303723        0.01823708        1.19959303        0.05394520        0.00934364        0.00191828
       -9.02902903        1.24186581        0.01743643        1.16129057        0.05220733        0.00906895        0.00186253
       -9.01901902        1.19987246        0.01664444        1.12218692        0.05044208        0.00879189        0.00180712
       -9.00900901        1.15760306        0.01587018        1.08279210        0.04867237        0.00851583        0.00175258
       -8.99899900        1.11554687        0.01512155        1.04356310        0.04691910        0.00824379        0.00169933
       -8.98898899        1.07412900        0.01440515        1.00489688        0.04520074        0.00797846        0.00164776
       -8.97897898        1.03370590        0.01372620        0.96712617        0.04353320        0.00772220        0.00159813
       -8.96896897        0.99456384        0.01308849        0.93051806        0.04192966        0.00747696        0.00155068
       -8.95895896        0.95692019        0.01249442        0.89527530        0.04040057        0.00724435        0.00150555
       -8.94894895        0.92092724        0.01194502        0.86153992        0.03895382        0.00702564        0.00146283
       -8.93893894        0.88667832        0.01144013        0.82939904        0.03759485        0.00682173        0.00142257
       -8.92892893        0.85421563        0.01097848        0.79889220        0.03632699        0.00663321        0.00138476
       -8.91891892        0.82353927        0.01055791        0.77001994        0.03515174        0.00646034        0.00134933
       -8.90890891        0.79461708        0.01017560        0.74275295        0.03406917        0.00630315        0.00131621
       -8.89889890        0.76739447        0.00982822        0.71704132        0.03307827        0.00616137        0.00128529
       -8.88888889        0.74180388        0.00951222        0.69282340        0.03217728        0.00603457        0.00125642
       -8.87887888        0.71777336        0.00922399        0.67003377        0.03136403        0.00592211        0.00122947
       -8.86886887        0.69523371        0.00896008        0.64860990        0.03063621        0.00582324        0.00120427
       -8.85885886        0.67412399        0.00871736        0.62849734        0.02999150        0.00573711        0.00118069
       -8.84884885        0.65439529        0.00849310        0.60965306        0.02942773        0.00566283        0.00115856
       -8.83883884        0.63601242        0.00828511        0.59204713        0.02894292        0.00559948        0.00113778
       -8.82882883        0.61895391        0.00809174        0.57566261        0.02853520        0.00554615        0.00111821
       -8.81881882        0.60321030        0.00791188        0.56049391        0.02820275        0.00550198        0.00109978
       -8.80880881        0.58878105        0.00774492        0.54654389        0.02794365        0.00546617        0.00108241
       -8.79879880        0.57567047        0.00759069        0.53381998        0.02775572        0.00543800        0.00106608
       -8.78878879        0.56388297        0.00744929        0.52232971        0.02763636        0.00541685        0.00105076
       -8.77877878        0.55341811        0.00732108        0.51207604        0.02758238        0.00540215        0.00103647
       -8.76876877        0.54426582        0.00720643        0.50305280        0.02758991        0.00539345        0.00102323
       -8.75875876        0.53640217        0.00710569        0.49524072        0.02765430        0.00539036        0.00101110
       -8.74874875        0.52978586        0.00701902        0.48860404        0.02777011        0.00539256        0.00100013
       -8.73873874        0.52435591        0.00694631        0.48308828        0.02793117        0.00539976        0.00099038
       -8.72872873        0.52003038        0.00688709        0.47861900        0.02813066        0.00541170        0.00098193
       -8.71871872        0.51670649        0.00684049        0.47510181        0.02836125        0.00542810        0.00097483
       -8.70870871        0.51426189        0.00680523        0.47242355        0.02861531        0.00544869        0.00096911
       -8.69869870        0.51255719        0.00677959        0.47045457        0.02888509        0.00547313        0.00096481
       -8.68868869        0.51143938        0.00676149        0.46905200        0.02916295        0.00550104        0.00096191
       -8.67867868        0.51074623        0.00674852        0.46806380        0.02944157        0.00553194        0.00096040
       -8.66866867        0.51031110        0.00673803        0.46733342        0.02971414        0.00556531        0.00096020
       -8.65865866        0.50996813        0.00672725        0.46670466        0.02997446        0.00560053        0.00096123
       -8.64864865        0.50955740        0.00671334        0.46602669        0.03021712        0.00563688        0.00096336
       -8.63863864        0.50892988        0.00669356        0.46515879        0.03043748        0.00567362        0.00096643
       -8.62862863        0.50795180        0.00666534        0.46397460        0.03063168        0.00570992        0.00097026
       -8.61861862        0.50650831        0.00662639        0.46236573        0.03079664        0.00574492        0.00097462
       -8.60860861        0.50450627        0.00657479        0.46024453        0.03092991        0.00577775        0.00097930
       -8.59859860        0.50187604        0.00650904        0.45754585        0.03102959        0.00580754        0.00098403
       -8.58858859        0.49857226        0.00642813        0.45422791        0.03109421        0.00583345        0.00098857
       -8.57857858        0.49457362        0.00633153        0.45027211        0.03112262        0.00585470        0.00099265
       -8.56856857        0.48988180        0.00621924        0.44568208        0.03111387        0.00587057        0.00099604
       -8.55855856        0.48451971        0.00609173        0.44048185        0.03106718        0.00588047        0.00099848
       -8.54854855        0.47852911        0.00594991        0.43471365        0.03098189        0.00588390        0.00099976
       -8.53853854        0.47196809        0.00579510        0.42843525        0.03085753        0.00588052        0.00099969
       -8.52852853        0.46490828        0.00562896        0.42171721        0.03069388        0.00587012        0.00099811
       -8.51851852        0.45743235        0.00545340        0.41464023        0.03049111        0.00585269        0.00099492
       -8.50850851        0.44963170        0.00527056        0.40729274        0.03024996        0.00582841        0.00099003
       -8.49849850        0.44160461        0.00508271        0.39976891        0.02997192        0.00579763        0.00098344
       -8.48848849        0.43345488        0.00489220        0.39216709        0.02965946        0.00576094        0.00097519
       -8.47847848        0.42529096        0.00470147        0.38458879        0.02931620        0.00571912        0.00096537
       -8.46846847        0.41722563        0.00451293        0.37713821        0.02894716        0.00567319        0.00095414
