#  aims_uuid : 34ED089B-8E9C-4626-A65E-7A0C34F4742C                                
#  angular momentum projected density of states for species S as calculated by FHI-aims 
# The energy reference for this output is the chemical potential, mu =      -5.302743 eV
#      Energy (eV)         total dos     l= 0              l= 1              l= 2              l= 3              l= 4
       -4.69725688        1.07549064        0.07917667        0.93520493        0.05404467        0.00646002        0.00060435
       -4.68724687        1.12438846        0.08336447        0.97668891        0.05693177        0.00677056        0.00063275
       -4.67723686        1.17202766        0.08746008        1.01707836        0.05975321        0.00707288        0.00066314
       -4.66722685        1.21805188        0.09143986        1.05606312        0.06248851        0.00736505        0.00069534
       -4.65721684        1.26212297        0.09528107        1.09334998        0.06511757        0.00764518        0.00072917
       -4.64720683        1.30392316        0.09896192        1.12866465        0.06762070        0.00791152        0.00076438
       -4.63719682        1.34315637        0.10246159        1.16175301        0.06997868        0.00816238        0.00080070
       -4.62718681        1.37954917        0.10576037        1.19238187        0.07217289        0.00839621        0.00083782
       -4.61717680        1.41285145        0.10883966        1.22033943        0.07418539        0.00861157        0.00087541
       -4.60716679        1.44283725        0.11168211        1.24543578        0.07599915        0.00880713        0.00091308
       -4.59715678        1.46930571        0.11427163        1.26750355        0.07759835        0.00898175        0.00095044
       -4.58714677        1.49208243        0.11659347        1.28639886        0.07896862        0.00913442        0.00098706
       -4.57713676        1.51102109        0.11863427        1.30200252        0.08009748        0.00926433        0.00102250
       -4.56712675        1.52600532        0.12038201        1.31422151        0.08097465        0.00937084        0.00105631
       -4.55711674        1.53695068        0.12182608        1.32299054        0.08159246        0.00945355        0.00108805
       -4.54710673        1.54380646        0.12295718        1.32827355        0.08194618        0.00951226        0.00111729
       -4.53709672        1.54655720        0.12376733        1.33006498        0.08203426        0.00954701        0.00114362
       -4.52708671        1.54522365        0.12424984        1.32839058        0.08185850        0.00955806        0.00116667
       -4.51707670        1.53986315        0.12439935        1.32330768        0.08142413        0.00954587        0.00118612
       -4.50706669        1.53056919        0.12421186        1.31490474        0.08073973        0.00951112        0.00120172
       -4.49705668        1.51747024        0.12368492        1.30330034        0.07981703        0.00945469        0.00121327
       -4.48704667        1.50072799        0.12281777        1.28864139        0.07867061        0.00937758        0.00122063
       -4.47703666        1.48053485        0.12161170        1.27110089        0.07731752        0.00928096        0.00122377
       -4.46702665        1.45711116        0.12007034        1.25087524        0.07577678        0.00916609        0.00122271
       -4.45701664        1.43070210        0.11820006        1.22818132        0.07406886        0.00903431        0.00121755
       -4.44700663        1.40157441        0.11601037        1.20325337        0.07221520        0.00888701        0.00120846
       -4.43699662        1.37001316        0.11351428        1.17633994        0.07023761        0.00872564        0.00119568
       -4.42698661        1.33631855        0.11072860        1.14770090        0.06815791        0.00855166        0.00117948
       -4.41697660        1.30080275        0.10767409        1.11760449        0.06599742        0.00836654        0.00116021
       -4.40696659        1.26378677        0.10437550        1.08632456        0.06377672        0.00817175        0.00113824
       -4.39695658        1.22559729        0.10086144        1.05413776        0.06151534        0.00796880        0.00111395
       -4.38694657        1.18656336        0.09716396        1.02132083        0.05923164        0.00775917        0.00108777
       -4.37693656        1.14701287        0.09331803        0.98814769        0.05694267        0.00754437        0.00106010
       -4.36692655        1.10726888        0.08936081        0.95488653        0.05466422        0.00732594        0.00103137
       -4.35691654        1.06764566        0.08533074        0.92179677        0.05241077        0.00710541        0.00100197
       -4.34690653        1.02844467        0.08126654        0.88912595        0.05019556        0.00688432        0.00097231
       -4.33689652        0.98995056        0.07720617        0.85710674        0.04803070        0.00666422        0.00094273
       -4.32688651        0.95242741        0.07318582        0.82595412        0.04592721        0.00644665        0.00091361
       -4.31687650        0.91611546        0.06923889        0.79586308        0.04389512        0.00623313        0.00088525
       -4.30686649        0.88122865        0.06539522        0.76700684        0.04194353        0.00602511        0.00085795
       -4.29685648        0.84795308        0.06168041        0.73953598        0.04008069        0.00582399        0.00083200
       -4.28684647        0.81644671        0.05811544        0.71357854        0.03831401        0.00563107        0.00080766
       -4.27683646        0.78684035        0.05471642        0.68924110        0.03665015        0.00544753        0.00078516
       -4.26682645        0.75923996        0.05149470        0.66661112        0.03509498        0.00527443        0.00076473
       -4.25681644        0.73373021        0.04845714        0.64576010        0.03365370        0.00511267        0.00074660
       -4.24680643        0.71037907        0.04560656        0.62674775        0.03233077        0.00496299        0.00073099
       -4.23679642        0.68924318        0.04294243        0.60962665        0.03113002        0.00482597        0.00071811
       -4.22678641        0.67037360        0.04046155        0.59444723        0.03005461        0.00470204        0.00070818
       -4.21677640        0.65382167        0.03815888        0.58126279        0.02910712        0.00459147        0.00070142
       -4.20676639        0.63964431        0.03602831        0.57013400        0.02828958        0.00449439        0.00069804
       -4.19675638        0.62790877        0.03406338        0.56113277        0.02760349        0.00441086        0.00069828
       -4.18674637        0.61869603        0.03225793        0.55434503        0.02704989        0.00434082        0.00070236
       -4.17673636        0.61210301        0.03060656        0.54987231        0.02662943        0.00428421        0.00071050
       -4.16672635        0.60824301        0.02910501        0.54783178        0.02634237        0.00424094        0.00072291
       -4.15671634        0.60724461        0.02775034        0.54835481        0.02618869        0.00421097        0.00073981
       -4.14670633        0.60924866        0.02654090        0.55158397        0.02616808        0.00419433        0.00076138
       -4.13669632        0.61440375        0.02547626        0.55766851        0.02628003        0.00419116        0.00078779
       -4.12668631        0.62286002        0.02455693        0.56675835        0.02652383        0.00420174        0.00081918
       -4.11667630        0.63476160        0.02378398        0.57899691        0.02689855        0.00422650        0.00085566
       -4.10666629        0.65023794        0.02315860        0.59451291        0.02740307        0.00426606        0.00089730
       -4.09665628        0.66939422        0.02268164        0.61341131        0.02803599        0.00432117        0.00094411
       -4.08664627        0.69230137        0.02235309        0.63576391        0.02879556        0.00439275        0.00099607
       -4.07663626        0.71898577        0.02217159        0.66159972        0.02967958        0.00448181        0.00105308
       -4.06662625        0.74941938        0.02213403        0.69089576        0.03068515        0.00458945        0.00111498
       -4.05661624        0.78351051        0.02223519        0.72356845        0.03180858        0.00471675        0.00118155
       -4.04660623        0.82109586        0.02246743        0.75946622        0.03304505        0.00486470        0.00125246
       -4.03659622        0.86193425        0.02282057        0.79836380        0.03438842        0.00503415        0.00132731
       -4.02658621        0.90570259        0.02328184        0.83995848        0.03583094        0.00522570        0.00140562
       -4.01657620        0.95199441        0.02383598        0.88386903        0.03736301        0.00543959        0.00148680
       -4.00656619        1.00032153        0.02446540        0.92963738        0.03897294        0.00567564        0.00157018
       -3.99655618        1.05011894        0.02515058        0.97673338        0.04064682        0.00593317        0.00165499
       -3.98654617        1.10075310        0.02587047        1.02456286        0.04236846        0.00621092        0.00174039
       -3.97653616        1.15153363        0.02660303        1.07247877        0.04411934        0.00650704        0.00182545
       -3.96652615        1.20172814        0.02732581        1.11979524        0.04587884        0.00681906        0.00190920
       -3.95651614        1.25057976        0.02801660        1.16580424        0.04762443        0.00714388        0.00199061
       -3.94650613        1.29732674        0.02865410        1.20979407        0.04933209        0.00747784        0.00206865
       -3.93649612        1.34122341        0.02921849        1.25106907        0.05097681        0.00781677        0.00214227
       -3.92648611        1.38156157        0.02969208        1.28896975        0.05253319        0.00815609        0.00221046
       -3.91647610        1.41769133        0.03005976        1.32289222        0.05397616        0.00849091        0.00227227
       -3.90646609        1.44904041        0.03030946        1.35230628        0.05528168        0.00881617        0.00232682
       -3.89645608        1.47513104        0.03043239        1.37677103        0.05642750        0.00912679        0.00237334
       -3.88644607        1.49559355        0.03042321        1.39594747        0.05739390        0.00941779        0.00241118
       -3.87643606        1.51017613        0.03028009        1.40960734        0.05816437        0.00968448        0.00243985
       -3.86642605        1.51875020        0.03000456        1.41763791        0.05872615        0.00992256        0.00245902
       -3.85641604        1.52131122        0.02960132        1.42004238        0.05907070        0.01012829        0.00246853
       -3.84640603        1.51797508        0.02907789        1.41693624        0.05919402        0.01029854        0.00246840
       -3.83639602        1.50897021        0.02844421        1.40853952        0.05909673        0.01043095        0.00245881
       -3.82638601        1.49462602        0.02771217        1.39516568        0.05878413        0.01052391        0.00244013
       -3.81637600        1.47535823        0.02689510        1.37720766        0.05826595        0.01057666        0.00241286
       -3.80636599        1.45165207        0.02600727        1.35512186        0.05755600        0.01058928        0.00237766
       -3.79635598        1.42404393        0.02506339        1.32941086        0.05667177        0.01056262        0.00233529
       -3.78634597        1.39310257        0.02407815        1.30060574        0.05563375        0.01049832        0.00228660
       -3.77633596        1.35941066        0.02306582        1.26924875        0.05446484        0.01039873        0.00223252
       -3.76632595        1.32354736        0.02203995        1.23587706        0.05318957        0.01026677        0.00217400
       -3.75631594        1.28607258        0.02101304        1.20100822        0.05183341        0.01010590        0.00211201
       -3.74630593        1.24751355        0.01999640        1.16512772        0.05042198        0.00991995        0.00204751
       -3.73629592        1.20835388        0.01900003        1.12867904        0.04898038        0.00971303        0.00198140
       -3.72628591        1.16902545        0.01803252        1.09205646        0.04753252        0.00948941        0.00191455
       -3.71627590        1.12990323        0.01710113        1.05560045        0.04610054        0.00925338        0.00184773
       -3.70626589        1.09130275        0.01621176        1.01959587        0.04470432        0.00900914        0.00178165
       -3.69625588        1.05348038        0.01536906        0.98427257        0.04336113        0.00876072        0.00171689
       -3.68624587        1.01663587        0.01457652        0.94980823        0.04208530        0.00851185        0.00165396
       -3.67623586        0.98091699        0.01383661        0.91633312        0.04088813        0.00826591        0.00159323
       -3.66622585        0.94642574        0.01315081        0.88393629        0.03977780        0.00802584        0.00153500
       -3.65621584        0.91322576        0.01251979        0.85267291        0.03875947        0.00779415        0.00147945
       -3.64620583        0.88135050        0.01194347        0.82257205        0.03783545        0.00757283        0.00142670
       -3.63619582        0.85081152        0.01142108        0.79364476        0.03700549        0.00736342        0.00137677
       -3.62618581        0.82160663        0.01095128        0.76589167        0.03626708        0.00716697        0.00132963
       -3.61617580        0.79372730        0.01053215        0.73930997        0.03561588        0.00698410        0.00128520
       -3.60616579        0.76716507        0.01016128        0.71389923        0.03504615        0.00681504        0.00124337
       -3.59615578        0.74191652        0.00983581        0.68966581        0.03455119        0.00665970        0.00120401
       -3.58614577        0.71798671        0.00955246        0.66662582        0.03412376        0.00651771        0.00116696
       -3.57613576        0.69539099        0.00930759        0.64480627        0.03375653        0.00638850        0.00113210
       -3.56612575        0.67415505        0.00909724        0.62424476        0.03344239        0.00627136        0.00109929
       -3.55611574        0.65431349        0.00891720        0.60498757        0.03317475        0.00616554        0.00106844
       -3.54610573        0.63590707        0.00876307        0.58708653        0.03294778        0.00607024        0.00103945
       -3.53609572        0.61897889        0.00863038        0.57059503        0.03275649        0.00598472        0.00101227
       -3.52608571        0.60357001        0.00851462        0.55556335        0.03259687        0.00590830        0.00098687
       -3.51607570        0.58971473        0.00841137        0.54203392        0.03246580        0.00584038        0.00096326
       -3.50606569        0.57743604        0.00831639        0.53003672        0.03236101        0.00578049        0.00094143
       -3.49605568        0.56674154        0.00822570        0.51958523        0.03228093        0.00572824        0.00092143
       -3.48604567        0.55762012        0.00813569        0.51067322        0.03222455        0.00568337        0.00090329
       -3.47603566        0.55003961        0.00804315        0.50327255        0.03219120        0.00564567        0.00088704
       -3.46602565        0.54394556        0.00794536        0.49733208        0.03218038        0.00561500        0.00087273
       -3.45601564        0.53926110        0.00784011        0.49277772        0.03219162        0.00559127        0.00086037
       -3.44600563        0.53588794        0.00772571        0.48951359        0.03222427        0.00557438        0.00084998
       -3.43599562        0.53370827        0.00760101        0.48742409        0.03227741        0.00556421        0.00084154
       -3.42598561        0.53258749        0.00746536        0.48637672        0.03234979        0.00556059        0.00083502
       -3.41597560        0.53237750        0.00731858        0.48622552        0.03243974        0.00556329        0.00083037
       -3.40596559        0.53292037        0.00716088        0.48681480        0.03254521        0.00557200        0.00082749
       -3.39595558        0.53405217        0.00699283        0.48798301        0.03266375        0.00558630        0.00082628
       -3.38594557        0.53560677        0.00681529        0.48956662        0.03279256        0.00560568        0.00082662
       -3.37593556        0.53741949        0.00662930        0.49140375        0.03292855        0.00562954        0.00082835
       -3.36592555        0.53933044        0.00643606        0.49333748        0.03306839        0.00565718        0.00083132
       -3.35591554        0.54118741        0.00623684        0.49521885        0.03320855        0.00568781        0.00083535
       -3.34590553        0.54284840        0.00603295        0.49690930        0.03334531        0.00572058        0.00084026
       -3.33589552        0.54418365        0.00582566        0.49828273        0.03347481        0.00575459        0.00084586
       -3.32588551        0.54507713        0.00561623        0.49922701        0.03359305        0.00578888        0.00085195
       -3.31587550        0.54542768        0.00540584        0.49964513        0.03369586        0.00582250        0.00085834
       -3.30586549        0.54514965        0.00519558        0.49945581        0.03377891        0.00585450        0.00086485
       -3.29585548        0.54417319        0.00498650        0.49859379        0.03383768        0.00588392        0.00087129
       -3.28584547        0.54244418        0.00477956        0.49700976        0.03386752        0.00590986        0.00087749
       -3.27583546        0.53992400        0.00457565        0.49466998        0.03386362        0.00593148        0.00088326
       -3.26582545        0.53658899        0.00437562        0.49155574        0.03382117        0.00594799        0.00088847
       -3.25581544        0.53242987        0.00418027        0.48766255        0.03373540        0.00595870        0.00089295
       -3.24580543        0.52745112        0.00399037        0.48299936        0.03360181        0.00596300        0.00089659
       -3.23579542        0.52167036        0.00380666        0.47758765        0.03341636        0.00596042        0.00089926
       -3.22578541        0.51511779        0.00362986        0.47146071        0.03317571        0.00595062        0.00090089
       -3.21577540        0.50783581        0.00346064        0.46466283        0.03287752        0.00593341        0.00090141
       -3.20576539        0.49987879        0.00329967        0.45724883        0.03252075        0.00590876        0.00090079
       -3.19575538        0.49131293        0.00314759        0.44928358        0.03210591        0.00587682        0.00089902
       -3.18574537        0.48221631        0.00300502        0.44084184        0.03163535        0.00583796        0.00089615
       -3.17573536        0.47267908        0.00287256        0.43200810        0.03111346        0.00579271        0.00089226
       -3.16572535        0.46280361        0.00275081        0.42287670        0.03054679        0.00574185        0.00088746
