#  aims_uuid : 34ED089B-8E9C-4626-A65E-7A0C34F4742C                                
#  angular momentum projected density of states for species S as calculated by FHI-aims 
# The energy reference for this output is the chemical potential, mu =      -5.302743 eV
#      Energy (eV)         total dos     l= 0              l= 1              l= 2              l= 3              l= 4
       -4.69725688        0.93981490        0.07100608        0.80945868        0.05261491        0.00612994        0.00060528
       -4.68724687        0.98435329        0.07428287        0.84753721        0.05546891        0.00642828        0.00063603
       -4.67723686        1.02860214        0.07750432        0.88546123        0.05824895        0.00671933        0.00066830
       -4.66722685        1.07217407        0.08064635        0.92289208        0.06093270        0.00700107        0.00070188
       -4.65721684        1.11468271        0.08368560        0.95949043        0.06349859        0.00727158        0.00073651
       -4.64720683        1.15574780        0.08659977        0.99492105        0.06592602        0.00752903        0.00077193
       -4.63719682        1.19499975        0.08936773        1.02885698        0.06819551        0.00777168        0.00080786
       -4.62718681        1.23208379        0.09196973        1.06098331        0.07028885        0.00799791        0.00084398
       -4.61717680        1.26666374        0.09438752        1.09100078        0.07218923        0.00820622        0.00088000
       -4.60716679        1.29842570        0.09660443        1.11862906        0.07388140        0.00839522        0.00091558
       -4.59715678        1.32708166        0.09860548        1.14361023        0.07535189        0.00856366        0.00095041
       -4.58714677        1.35237326        0.10037739        1.16571213        0.07658917        0.00871044        0.00098414
       -4.57713676        1.37407546        0.10190869        1.18473181        0.07758386        0.00883465        0.00101645
       -4.56712675        1.39200041        0.10318979        1.20049908        0.07832899        0.00893553        0.00104701
       -4.55711674        1.40600093        0.10421296        1.21287973        0.07882014        0.00901257        0.00107553
       -4.54710673        1.41597386        0.10497242        1.22177862        0.07905565        0.00906546        0.00110171
       -4.53709672        1.42186263        0.10546437        1.22714213        0.07903672        0.00909413        0.00112528
       -4.52708671        1.42365908        0.10568697        1.22895987        0.07876746        0.00909875        0.00114603
       -4.51707670        1.42140424        0.10564035        1.22726549        0.07825490        0.00907973        0.00116376
       -4.50706669        1.41518787        0.10532660        1.22213630        0.07750890        0.00903774        0.00117833
       -4.49705668        1.40514667        0.10474969        1.21369177        0.07654193        0.00897364        0.00118964
       -4.48704667        1.39146133        0.10391549        1.20209084        0.07536886        0.00888849        0.00119765
       -4.47703666        1.37435223        0.10283163        1.18752809        0.07400662        0.00878354        0.00120235
       -4.46702665        1.35407430        0.10150748        1.17022900        0.07247386        0.00866016        0.00120379
       -4.45701664        1.33091099        0.09995408        1.15044444        0.07079052        0.00851986        0.00120208
       -4.44700663        1.30516782        0.09818404        1.12844476        0.06897747        0.00836421        0.00119733
       -4.43699662        1.27716569        0.09621144        1.10451359        0.06705607        0.00819486        0.00118973
       -4.42698661        1.24723432        0.09405182        1.07894179        0.06504778        0.00801347        0.00117946
       -4.41697660        1.21570593        0.09172198        1.05202159        0.06297387        0.00782174        0.00116674
       -4.40696659        1.18290946        0.08923993        1.02404132        0.06085505        0.00762135        0.00115181
       -4.39695658        1.14916547        0.08662468        0.99528068        0.05871122        0.00741399        0.00113491
       -4.38694657        1.11478165        0.08389610        0.96600671        0.05656125        0.00720130        0.00111629
       -4.37693656        1.08004916        0.08107470        0.93647053        0.05442280        0.00698492        0.00109620
       -4.36692655        1.04523969        0.07818137        0.90690482        0.05231217        0.00676644        0.00107489
       -4.35691654        1.01060329        0.07523710        0.87752202        0.05024415        0.00654741        0.00105262
       -4.34690653        0.97636684        0.07226267        0.84851324        0.04823195        0.00632935        0.00102962
       -4.33689652        0.94273329        0.06927839        0.82004790        0.04628716        0.00611369        0.00100614
       -4.32688651        0.90988157        0.06630373        0.79227393        0.04441967        0.00590181        0.00098242
       -4.31687650        0.87796719        0.06335709        0.76531874        0.04263768        0.00569499        0.00095869
       -4.30686649        0.84712353        0.06045552        0.73929070        0.04094771        0.00549443        0.00093517
       -4.29685648        0.81746381        0.05761452        0.71428129        0.03935468        0.00530121        0.00091211
       -4.28684647        0.78908373        0.05484794        0.69036778        0.03786201        0.00511628        0.00088971
       -4.27683646        0.76206468        0.05216787        0.66761637        0.03647172        0.00494050        0.00086822
       -4.26682645        0.73647745        0.04958463        0.64608572        0.03518468        0.00477455        0.00084786
       -4.25681644        0.71238624        0.04710689        0.62583073        0.03400073        0.00461902        0.00082886
       -4.24680643        0.68985287        0.04474171        0.60690633        0.03291901        0.00447437        0.00081144
       -4.23679642        0.66894093        0.04249478        0.58937120        0.03193816        0.00434095        0.00079585
       -4.22678641        0.64971955        0.04037055        0.57329112        0.03105656        0.00421901        0.00078232
       -4.21677640        0.63226678        0.03837252        0.55874178        0.03027265        0.00410874        0.00077109
       -4.20676639        0.61667207        0.03650339        0.54581091        0.02958507        0.00401030        0.00076240
       -4.19675638        0.60303792        0.03476527        0.53459943        0.02899290        0.00392381        0.00075650
       -4.18674637        0.59148043        0.03315989        0.52522170        0.02849578        0.00384942        0.00075364
       -4.17673636        0.58212865        0.03168869        0.51780461        0.02809402        0.00378729        0.00075404
       -4.16672635        0.57512282        0.03035290        0.51248570        0.02778858        0.00373769        0.00075795
       -4.15671634        0.57061134        0.02915359        0.50941009        0.02758113        0.00370094        0.00076559
       -4.14670633        0.56874681        0.02809166        0.50872658        0.02747392        0.00367748        0.00077718
       -4.13669632        0.56968097        0.02716773        0.51058282        0.02746967        0.00366785        0.00079290
       -4.12668631        0.57355896        0.02638205        0.51511982        0.02757143        0.00367274        0.00081292
       -4.11667630        0.58051296        0.02573438        0.52246592        0.02778235        0.00369292        0.00083739
       -4.10666629        0.59065537        0.02522374        0.53273047        0.02810548        0.00372927        0.00086642
       -4.09665628        0.60407190        0.02484830        0.54599731        0.02854349        0.00378275        0.00090006
       -4.08664627        0.62081457        0.02460514        0.56231835        0.02909843        0.00385433        0.00093832
       -4.07663626        0.64089509        0.02449010        0.58170742        0.02977141        0.00394499        0.00098118
       -4.06662625        0.66427863        0.02449761        0.60413450        0.03056236        0.00405564        0.00102851
       -4.05661624        0.69087829        0.02462058        0.62952080        0.03146971        0.00418704        0.00108016
       -4.04660623        0.72055061        0.02485030        0.65773453        0.03249013        0.00433977        0.00113588
       -4.03659622        0.75309214        0.02517645        0.68858790        0.03361830        0.00451413        0.00119535
       -4.02658621        0.78823745        0.02558711        0.72183541        0.03484666        0.00471011        0.00125818
       -4.01657620        0.82565883        0.02606885        0.75717356        0.03616529        0.00492726        0.00132387
       -4.00656619        0.86496767        0.02660690        0.79424237        0.03756180        0.00516473        0.00139188
       -3.99655618        0.90571793        0.02718534        0.83262854        0.03902134        0.00542115        0.00146157
       -3.98654617        0.94741157        0.02778739        0.87187064        0.04052666        0.00569465        0.00153224
       -3.97653616        0.98950609        0.02839569        0.91146612        0.04205830        0.00598285        0.00160314
       -3.96652615        1.03142413        0.02899266        0.95088021        0.04359492        0.00628288        0.00167346
       -3.95651614        1.07256480        0.02956087        0.98955646        0.04511371        0.00659140        0.00174237
       -3.94650613        1.11231677        0.03008341        1.02692879        0.04659087        0.00690468        0.00180902
       -3.93649612        1.15007241        0.03054429        1.06243462        0.04800225        0.00721869        0.00187257
       -3.92648611        1.18524284        0.03092879        1.09552873        0.04932400        0.00752914        0.00193218
       -3.91647610        1.21727313        0.03122381        1.12569728        0.05053331        0.00783164        0.00198708
       -3.90646609        1.24565724        0.03141818        1.15247161        0.05160909        0.00812181        0.00203655
       -3.89645608        1.26995194        0.03150290        1.17544106        0.05253270        0.00839535        0.00207993
       -3.88644607        1.28978930        0.03147136        1.19426447        0.05328858        0.00864823        0.00211666
       -3.87643606        1.30488707        0.03131945        1.20867979        0.05386479        0.00887675        0.00214630
       -3.86642605        1.31505651        0.03104566        1.21851126        0.05425346        0.00907764        0.00216849
       -3.85641604        1.32020743        0.03065106        1.22367412        0.05445104        0.00924818        0.00218303
       -3.84640603        1.32035008        0.03013922        1.22417630        0.05445848        0.00938627        0.00218981
       -3.83639602        1.31559388        0.02951608        1.22011729        0.05428118        0.00949045        0.00218887
       -3.82638601        1.30614305        0.02878975        1.21168418        0.05392879        0.00955997        0.00218037
       -3.81637600        1.29228943        0.02797027        1.19914493        0.05341490        0.00959478        0.00216456
       -3.80636599        1.27440265        0.02706928        1.18283942        0.05275656        0.00959555        0.00214184
       -3.79635598        1.25291824        0.02609972        1.16316851        0.05197371        0.00956362        0.00211268
       -3.78634597        1.22832421        0.02507546        1.14058159        0.05108853        0.00950096        0.00207768
       -3.77633596        1.20114657        0.02401094        1.11556330        0.05012471        0.00941016        0.00203746
       -3.76632595        1.17193437        0.02292079        1.08861978        0.04910676        0.00929428        0.00199276
       -3.75631594        1.14124495        0.02181951        1.06026502        0.04805928        0.00915682        0.00194432
       -3.74630593        1.10962973        0.02072112        1.03100784        0.04700622        0.00900160        0.00189295
       -3.73629592        1.07762116        0.01963887        1.00133985        0.04597034        0.00883266        0.00183944
       -3.72628591        1.04572111        0.01858500        0.97172480        0.04497256        0.00865416        0.00178460
       -3.71627590        1.01439096        0.01757048        0.94258947        0.04403156        0.00847025        0.00172921
       -3.70626589        0.98404367        0.01660492        0.91431645        0.04316334        0.00828496        0.00167400
       -3.69625588        0.95503787        0.01569638        0.88723869        0.04238098        0.00810213        0.00161968
       -3.68624587        0.92767399        0.01485139        0.86163604        0.04169444        0.00792527        0.00156685
       -3.67623586        0.90219235        0.01407486        0.83773348        0.04111048        0.00775746        0.00151607
       -3.66622585        0.87877311        0.01337016        0.81570114        0.04063269        0.00760135        0.00146777
       -3.65621584        0.85753780        0.01273915        0.79565573        0.04026156        0.00745903        0.00142233
       -3.64620583        0.83855236        0.01218235        0.77766331        0.03999468        0.00733204        0.00137998
       -3.63619582        0.82183118        0.01169899        0.76174299        0.03982697        0.00722133        0.00134090
       -3.62618581        0.80734208        0.01128723        0.74787148        0.03975097        0.00712727        0.00130513
       -3.61617580        0.79501191        0.01094428        0.73598805        0.03975721        0.00704972        0.00127265
       -3.60616579        0.78473238        0.01066661        0.72599985        0.03983459        0.00698799        0.00124333
       -3.59615578        0.77636611        0.01045010        0.71778723        0.03997077        0.00694100        0.00121701
       -3.58614577        0.76975257        0.01029020        0.71120904        0.04015261        0.00690728        0.00119343
       -3.57613576        0.76471382        0.01018211        0.70610770        0.04036657        0.00688510        0.00117233
       -3.56612575        0.76106002        0.01012091        0.70231400        0.04059916        0.00687256        0.00115339
       -3.55611574        0.75859454        0.01010169        0.69965162        0.04083728        0.00686765        0.00113630
       -3.54610573        0.75711882        0.01011963        0.69794138        0.04106867        0.00686839        0.00112074
       -3.53609572        0.75643681        0.01017010        0.69700518        0.04128220        0.00687290        0.00110642
       -3.52608571        0.75635917        0.01024873        0.69666975        0.04146816        0.00687945        0.00109308
       -3.51607570        0.75670711        0.01035141        0.69677012        0.04161853        0.00688657        0.00108048
       -3.50606569        0.75731587        0.01047435        0.69715287        0.04172716        0.00689306        0.00106843
       -3.49605568        0.75803782        0.01061400        0.69767905        0.04178992        0.00689804        0.00105681
       -3.48604567        0.75874516        0.01076714        0.69822680        0.04180472        0.00690097        0.00104553
       -3.47603566        0.75933192        0.01093071        0.69869344        0.04177155        0.00690166        0.00103455
       -3.46602565        0.75971536        0.01110188        0.69899700        0.04169236        0.00690023        0.00102389
       -3.45601564        0.75983660        0.01127793        0.69907702        0.04157098        0.00689707        0.00101359
       -3.44600563        0.75966020        0.01145619        0.69889455        0.04141285        0.00689285        0.00100377
       -3.43599562        0.75917297        0.01163403        0.69843123        0.04122480        0.00688839        0.00099452
       -3.42598561        0.75838168        0.01180879        0.69768754        0.04101470        0.00688467        0.00098599
       -3.41597560        0.75730991        0.01197774        0.69668004        0.04079113        0.00688269        0.00097832
       -3.40596559        0.75599411        0.01213809        0.69543794        0.04056296        0.00688347        0.00097164
       -3.39595558        0.75447905        0.01228700        0.69399902        0.04033901        0.00688792        0.00096610
       -3.38594557        0.75281290        0.01242155        0.69240519        0.04012755        0.00689683        0.00096179
       -3.37593556        0.75104225        0.01253886        0.69069787        0.03993598        0.00691076        0.00095878
       -3.36592555        0.74920731        0.01263613        0.68891355        0.03977044        0.00693006        0.00095712
       -3.35591554        0.74733761        0.01271071        0.68707984        0.03963549        0.00695477        0.00095681
       -3.34590553        0.74544849        0.01276020        0.68521204        0.03953382        0.00698464        0.00095779
       -3.33589552        0.74353860        0.01278257        0.68331085        0.03946608        0.00701912        0.00095998
       -3.32588551        0.74158846        0.01277624        0.68136091        0.03943072        0.00705736        0.00096324
       -3.31587550        0.73956041        0.01274018        0.67933063        0.03942398        0.00709822        0.00096741
       -3.30586549        0.73739966        0.01267397        0.67717317        0.03943992        0.00714034        0.00097226
       -3.29585548        0.73503666        0.01257788        0.67482846        0.03947061        0.00718214        0.00097757
       -3.28584547        0.73239045        0.01245285        0.67222627        0.03950635        0.00722191        0.00098307
       -3.27583546        0.72937300        0.01230055        0.66929007        0.03953602        0.00725784        0.00098851
       -3.26582545        0.72589403        0.01212327        0.66594148        0.03954754        0.00728812        0.00099362
       -3.25581544        0.72186644        0.01192392        0.66210505        0.03952834        0.00731100        0.00099812
       -3.24580543        0.71721165        0.01170590        0.65771316        0.03946597        0.00732484        0.00100178
       -3.23579542        0.71186493        0.01147301        0.65271071        0.03934864        0.00732820        0.00100437
       -3.22578541        0.70578029        0.01122930        0.64705946        0.03916591        0.00731991        0.00100571
       -3.21577540        0.69893463        0.01097897        0.64074168        0.03890921        0.00729912        0.00100565
       -3.20576539        0.69133119        0.01072623        0.63376310        0.03857242        0.00726534        0.00100409
       -3.19575538        0.68300186        0.01047517        0.62615487        0.03815233        0.00721850        0.00100098
       -3.18574537        0.67400851        0.01022966        0.61797454        0.03764901        0.00715897        0.00099633
       -3.17573536        0.66444305        0.00999330        0.60930597        0.03706602        0.00708758        0.00099018
       -3.16572535        0.65442631        0.00976932        0.60025820        0.03641052        0.00700558        0.00098268
