#  aims_uuid : 34ED089B-8E9C-4626-A65E-7A0C34F4742C                                
#  angular momentum projected density of states for species S as calculated by FHI-aims 
# The energy reference for this output is the vacuum level =       0.000000 eV
#      Energy (eV)         total dos     l= 0              l= 1              l= 2              l= 3              l= 4
      -10.00000000        1.04826453        0.07116462        0.91899997        0.05148900        0.00598612        0.00062483
       -9.98998999        1.09393504        0.07497234        0.95797389        0.05405294        0.00628373        0.00065215
       -9.97997998        1.13871091        0.07868306        0.99622354        0.05654923        0.00657474        0.00068035
       -9.96996997        1.18216712        0.08227461        1.03337069        0.05895540        0.00685720        0.00070922
       -9.95995996        1.22390313        0.08572672        1.06905880        0.06124980        0.00712926        0.00073855
       -9.94994995        1.26355011        0.08902108        1.10295987        0.06341189        0.00738915        0.00076811
       -9.93993994        1.30077655        0.09214131        1.13477982        0.06542255        0.00763521        0.00079766
       -9.92992993        1.33529215        0.09507293        1.16426213        0.06726427        0.00786583        0.00082699
       -9.91991992        1.36685005        0.09780321        1.19119004        0.06892142        0.00807953        0.00085584
       -9.90990991        1.39524767        0.10032114        1.21538724        0.07038040        0.00827490        0.00088398
       -9.89989990        1.42032617        0.10261722        1.23671730        0.07162984        0.00845064        0.00091118
       -9.88988989        1.44196895        0.10468339        1.25508210        0.07266071        0.00860555        0.00093719
       -9.87987988        1.46009925        0.10651291        1.27041949        0.07346649        0.00873860        0.00096176
       -9.86986987        1.47467727        0.10810020        1.28270032        0.07404319        0.00884888        0.00098468
       -9.85985986        1.48569676        0.10944081        1.29192511        0.07438945        0.00893566        0.00100572
       -9.84984985        1.49318150        0.11053127        1.29812064        0.07450652        0.00899841        0.00102466
       -9.83983984        1.49718172        0.11136902        1.30133638        0.07439819        0.00903681        0.00104132
       -9.82982983        1.49777053        0.11195236        1.30164120        0.07407069        0.00905075        0.00105553
       -9.81981982        1.49504068        0.11228035        1.29912024        0.07353254        0.00904037        0.00106717
       -9.80980981        1.48910147        0.11235283        1.29387213        0.07279435        0.00900605        0.00107612
       -9.79979980        1.48007620        0.11217036        1.28600664        0.07186849        0.00894838        0.00108234
       -9.78978979        1.46809995        0.11173427        1.27564279        0.07076889        0.00886820        0.00108579
       -9.77977978        1.45331787        0.11104671        1.26290741        0.06951067        0.00876655        0.00108652
       -9.76976977        1.43588404        0.11011076        1.24793420        0.06810984        0.00864467        0.00108458
       -9.75975976        1.41596067        0.10893053        1.23086313        0.06658296        0.00850396        0.00108009
       -9.74974975        1.39371777        0.10751139        1.21184029        0.06494691        0.00834600        0.00107318
       -9.73973974        1.36933303        0.10586006        1.19101789        0.06321857        0.00817248        0.00106403
       -9.72972973        1.34299189        0.10398487        1.16855434        0.06141461        0.00798522        0.00105286
       -9.71971972        1.31488755        0.10189591        1.14461435        0.05955129        0.00778613        0.00103988
       -9.70970971        1.28522080        0.09960515        1.11936877        0.05764436        0.00757718        0.00102534
       -9.69969970        1.25419945        0.09712657        1.09299413        0.05570886        0.00736040        0.00100949
       -9.68968969        1.22203741        0.09447610        1.06567175        0.05375911        0.00713786        0.00099259
       -9.67967968        1.18895315        0.09167164        1.03758642        0.05180859        0.00691162        0.00097488
       -9.66966967        1.15516772        0.08873282        1.00892458        0.04986994        0.00668375        0.00095663
       -9.65965966        1.12090225        0.08568080        0.97987226        0.04795486        0.00645626        0.00093807
       -9.64964965        1.08637523        0.08253795        0.95061264        0.04607413        0.00623109        0.00091942
       -9.63963964        1.05179966        0.07932739        0.92132371        0.04423756        0.00601011        0.00090089
       -9.62962963        1.01738037        0.07607263        0.89217605        0.04245395        0.00579505        0.00088268
       -9.61961962        0.98331168        0.07279704        0.86333104        0.04073112        0.00558749        0.00086498
       -9.60960961        0.94977579        0.06952345        0.83493967        0.03907587        0.00538886        0.00084794
       -9.59959960        0.91694189        0.06627366        0.80714211        0.03749402        0.00520039        0.00083172
       -9.58958959        0.88496633        0.06306815        0.78006820        0.03599042        0.00502308        0.00081648
       -9.57957958        0.85399370        0.05992572        0.75383880        0.03456907        0.00485778        0.00080234
       -9.56956957        0.82415893        0.05686334        0.72856795        0.03323313        0.00470507        0.00078944
       -9.55955956        0.79559016        0.05389600        0.70436574        0.03198511        0.00456538        0.00077793
       -9.54954955        0.76841219        0.05103675        0.68134162        0.03082695        0.00443892        0.00076794
       -9.53953954        0.74275021        0.04829671        0.65960793        0.02976018        0.00432575        0.00075963
       -9.52952953        0.71873353        0.04568527        0.63928321        0.02878608        0.00422582        0.00075315
       -9.51951952        0.69649884        0.04321024        0.62049516        0.02790582        0.00413894        0.00074868
       -9.50950951        0.67619284        0.04087813        0.60338281        0.02712063        0.00406489        0.00074639
       -9.49949950        0.65797379        0.03869436        0.58809767        0.02643189        0.00400341        0.00074647
       -9.48948949        0.64201184        0.03666352        0.57480372        0.02584123        0.00395423        0.00074914
       -9.47947948        0.62848800        0.03478954        0.56367608        0.02535061        0.00391716        0.00075461
       -9.46946947        0.61759158        0.03307590        0.55489822        0.02496232        0.00389207        0.00076307
       -9.45945946        0.60951630        0.03152569        0.54865796        0.02467897        0.00387893        0.00077475
       -9.44944945        0.60445493        0.03014164        0.54514217        0.02450343        0.00387784        0.00078985
       -9.43943944        0.60259283        0.02892614        0.54453036        0.02443872        0.00388905        0.00080856
       -9.42942943        0.60410054        0.02788110        0.54698760        0.02448785        0.00391295        0.00083105
       -9.41941942        0.60912570        0.02700781        0.55265672        0.02465366        0.00395007        0.00085746
       -9.40940941        0.61778462        0.02630671        0.56165035        0.02493860        0.00400106        0.00088789
       -9.39939940        0.63015386        0.02577719        0.57404305        0.02534449        0.00406670        0.00092243
       -9.38938939        0.64626220        0.02541727        0.58986377        0.02587224        0.00414784        0.00096108
       -9.37937938        0.66608324        0.02522334        0.60908911        0.02652165        0.00424533        0.00100380
       -9.36936937        0.68952918        0.02518994        0.63163760        0.02729109        0.00436004        0.00105051
       -9.35935936        0.71644590        0.02530951        0.65736538        0.02817727        0.00449270        0.00110104
       -9.34934935        0.74660977        0.02557221        0.68606341        0.02917506        0.00464394        0.00115515
       -9.33933934        0.77972642        0.02596584        0.71745663        0.03027729        0.00481412        0.00121254
       -9.32932933        0.81543168        0.02647586        0.75120502        0.03147464        0.00500332        0.00127283
       -9.31931932        0.85329477        0.02708541        0.78690694        0.03275557        0.00521128        0.00133556
       -9.30930931        0.89282386        0.02777555        0.82410447        0.03410636        0.00543727        0.00140022
       -9.29929930        0.93347398        0.02852553        0.86229092        0.03551118        0.00568014        0.00146621
       -9.28928929        0.97465699        0.02931318        0.90092040        0.03695231        0.00593820        0.00153289
       -9.27927928        1.01575364        0.03011540        0.93941903        0.03841040        0.00620927        0.00159955
       -9.26926927        1.05612717        0.03090868        0.97719760        0.03986479        0.00649064        0.00166546
       -9.25925926        1.09513810        0.03166973        1.01366541        0.04129399        0.00677911        0.00172986
       -9.24924925        1.13215982        0.03237606        1.04824459        0.04267612        0.00707108        0.00179196
       -9.23923924        1.16659424        0.03300664        1.08038459        0.04398946        0.00736255        0.00185101
       -9.22922923        1.19788721        0.03354241        1.10957628        0.04521299        0.00764927        0.00190625
       -9.21921922        1.22554285        0.03396688        1.13536515        0.04632700        0.00792684        0.00195698
       -9.20920921        1.24913647        0.03426649        1.15736308        0.04731358        0.00819078        0.00200253
       -9.19919920        1.26832551        0.03443095        1.17525833        0.04815716        0.00843673        0.00204233
       -9.18918919        1.28285809        0.03445346        1.18882329        0.04884495        0.00866054        0.00207585
       -9.17917918        1.29257891        0.03433073        1.19791978        0.04936731        0.00885838        0.00210270
       -9.16916917        1.29743220        0.03406296        1.20250174        0.04971804        0.00902691        0.00212255
       -9.15915916        1.29746182        0.03365364        1.20261511        0.04989453        0.00916333        0.00213521
       -9.14914915        1.29280831        0.03310926        1.19839513        0.04989784        0.00926550        0.00214058
       -9.13913914        1.28370325        0.03243894        1.19006097        0.04973266        0.00933199        0.00213868
       -9.12912913        1.27046102        0.03165400        1.17790808        0.04940713        0.00936216        0.00212965
       -9.11911912        1.25346837        0.03076749        1.16229847        0.04893258        0.00935610        0.00211374
       -9.10910911        1.23317213        0.02979370        1.14364929        0.04832316        0.00931469        0.00209129
       -9.09909910        1.21006554        0.02874769        1.12242013        0.04759542        0.00923956        0.00206273
       -9.08908909        1.18467370        0.02764491        1.09909939        0.04676778        0.00913301        0.00202861
       -9.07907908        1.15753850        0.02650072        1.07419034        0.04585999        0.00899794        0.00198952
       -9.06906907        1.12920367        0.02533014        1.04819708        0.04489257        0.00883777        0.00194611
       -9.05905906        1.10020028        0.02414755        1.02161109        0.04388620        0.00865634        0.00189911
       -9.04904905        1.07103319        0.02296646        0.99489859        0.04286114        0.00845777        0.00184923
       -9.03903904        1.04216895        0.02179938        0.96848921        0.04183676        0.00824635        0.00179725
       -9.02902903        1.01402526        0.02065770        0.94276626        0.04083098        0.00802643        0.00174389
       -9.01901902        0.98696255        0.01955162        0.91805889        0.03985986        0.00780227        0.00168991
       -9.00900901        0.96127773        0.01849009        0.89463641        0.03893731        0.00757794        0.00163598
       -8.99899900        0.93720038        0.01748080        0.87270480        0.03807479        0.00735722        0.00158277
       -8.98898899        0.91489126        0.01653018        0.85240560        0.03728115        0.00714349        0.00153085
       -8.97897898        0.89444339        0.01564336        0.83381701        0.03656259        0.00693968        0.00148075
       -8.96896897        0.87588523        0.01482422        0.81695724        0.03592270        0.00674818        0.00143289
       -8.95895896        0.85918608        0.01407539        0.80178966        0.03536256        0.00657086        0.00138761
       -8.94894895        0.84426313        0.01339827        0.78822972        0.03488099        0.00640898        0.00134517
       -8.93893894        0.83098993        0.01279308        0.77615307        0.03447477        0.00626327        0.00130574
       -8.92892893        0.81920584        0.01225890        0.76540460        0.03413904        0.00613392        0.00126939
       -8.91891892        0.80872602        0.01179376        0.75580788        0.03386764        0.00602061        0.00123613
       -8.90890891        0.79935147        0.01139472        0.74717471        0.03365351        0.00592264        0.00120588
       -8.89889890        0.79087877        0.01105802        0.73931423        0.03348906        0.00583894        0.00117852
       -8.88888889        0.78310910        0.01077914        0.73204130        0.03336660        0.00576817        0.00115389
       -8.87887888        0.77585622        0.01055303        0.72518396        0.03327864        0.00570883        0.00113176
       -8.86886887        0.76895322        0.01037420        0.71858956        0.03321822        0.00565932        0.00111192
       -8.85885886        0.76225787        0.01023695        0.71212962        0.03317913        0.00561803        0.00109414
       -8.84884885        0.75565643        0.01013547        0.70570319        0.03315613        0.00558345        0.00107820
       -8.83883884        0.74906597        0.01006406        0.69923881        0.03314504        0.00555418        0.00106388
       -8.82882883        0.74243520        0.01001723        0.69269510        0.03314285        0.00552902        0.00105100
       -8.81881882        0.73574393        0.00998987        0.68605997        0.03314765        0.00550702        0.00103942
       -8.80880881        0.72900115        0.00997730        0.67934874        0.03315864        0.00548745        0.00102901
       -8.79879880        0.72224200        0.00997540        0.67260105        0.03317597        0.00546988        0.00101970
       -8.78878879        0.71552366        0.00998065        0.66587685        0.03320062        0.00545412        0.00101143
       -8.77877878        0.70892033        0.00999011        0.65925162        0.03323418        0.00544020        0.00100422
       -8.76876877        0.70251745        0.01000149        0.65281085        0.03327867        0.00542837        0.00099807
       -8.75875876        0.69640544        0.01001304        0.64664401        0.03333631        0.00541904        0.00099303
       -8.74874875        0.69067300        0.01002353        0.64083832        0.03340923        0.00541273        0.00098918
       -8.73873874        0.68540043        0.01003220        0.63547235        0.03349927        0.00541001        0.00098660
       -8.72872873        0.68065312        0.01003862        0.63060995        0.03360773        0.00541145        0.00098537
       -8.71871872        0.67647562        0.01004261        0.62629469        0.03373519        0.00541757        0.00098556
       -8.70870871        0.67288658        0.01004420        0.62254509        0.03388125        0.00542879        0.00098725
       -8.69869870        0.66987493        0.01004343        0.61935119        0.03404447        0.00544536        0.00099049
       -8.68868869        0.66739766        0.01004037        0.61667242        0.03422224        0.00546736        0.00099528
       -8.67867868        0.66537929        0.01003497        0.61443733        0.03441070        0.00549466        0.00100162
       -8.66866867        0.66371334        0.01002707        0.61254508        0.03460485        0.00552689        0.00100945
       -8.65865866        0.66226581        0.01001632        0.61086883        0.03479851        0.00556347        0.00101868
       -8.64864865        0.66088044        0.01000218        0.60926093        0.03498458        0.00560358        0.00102917
       -8.63863864        0.65938571        0.00998395        0.60755966        0.03515516        0.00564621        0.00104074
       -8.62862863        0.65760304        0.00996077        0.60559713        0.03530181        0.00569016        0.00105317
       -8.61861862        0.65535587        0.00993170        0.60320799        0.03541585        0.00573412        0.00106620
       -8.60860861        0.65247892        0.00989575        0.60023827        0.03548868        0.00577667        0.00107955
       -8.59859860        0.64882720        0.00985194        0.59655395        0.03551207        0.00581635        0.00109289
       -8.58858859        0.64428402        0.00979939        0.59204851        0.03547850        0.00585171        0.00110590
       -8.57857858        0.63876769        0.00973740        0.58664921        0.03538148        0.00588135        0.00111824
       -8.56856857        0.63223632        0.00966547        0.58032151        0.03521580        0.00590397        0.00112957
       -8.55855856        0.62469053        0.00958335        0.57307138        0.03497779        0.00591844        0.00113956
       -8.54854855        0.61617392        0.00949114        0.56494554        0.03466552        0.00592379        0.00114792
       -8.53853854        0.60677130        0.00938922        0.55602947        0.03427892        0.00591931        0.00115437
       -8.52852853        0.59660492        0.00927832        0.54644349        0.03381988        0.00590454        0.00115869
       -8.51851852        0.58582898        0.00915947        0.53633719        0.03329228        0.00587931        0.00116072
       -8.50850851        0.57462275        0.00903401        0.52588266        0.03270200        0.00584375        0.00116033
       -8.49849850        0.56318298        0.00890352        0.51526689        0.03205677        0.00579830        0.00115749
       -8.48848849        0.55171588        0.00876984        0.50468397        0.03136611        0.00574374        0.00115222
       -8.47847848        0.54042929        0.00863494        0.49432748        0.03064110        0.00568114        0.00114464
       -8.46846847        0.52952538        0.00850096        0.48438346        0.02989420        0.00561187        0.00113490
