#  aims_uuid : 34ED089B-8E9C-4626-A65E-7A0C34F4742C                                
#  angular momentum projected density of states for species S as calculated by FHI-aims 
# The energy reference for this output is the vacuum level =       0.000000 eV
#      Energy (eV)         total dos     l= 0              l= 1              l= 2              l= 3              l= 4
      -10.00000000        1.04832938        0.07123081        0.91900753        0.05147913        0.00598696        0.00062495
       -9.98998999        1.09399569        0.07503889        0.95797810        0.05404203        0.00628439        0.00065228
       -9.97997998        1.13876728        0.07874906        0.99622523        0.05653732        0.00657518        0.00068049
       -9.96996997        1.18221897        0.08233907        1.03337060        0.05894253        0.00685740        0.00070937
       -9.95995996        1.22395007        0.08578857        1.06905756        0.06123603        0.00712920        0.00073870
       -9.94994995        1.26359166        0.08907921        1.10295807        0.06339729        0.00738881        0.00076827
       -9.93993994        1.30081220        0.09219460        1.13477801        0.06540720        0.00763456        0.00079783
       -9.92992993        1.33532142        0.09512026        1.16426086        0.06724827        0.00786487        0.00082716
       -9.91991992        1.36687254        0.09784353        1.19118988        0.06890487        0.00807824        0.00085601
       -9.90990991        1.39526313        0.10035347        1.21538880        0.07036342        0.00827328        0.00088416
       -9.89989990        1.42033453        0.10264071        1.23672124        0.07161255        0.00844869        0.00091135
       -9.88988989        1.44197038        0.10469736        1.25508916        0.07264324        0.00860328        0.00093735
       -9.87987988        1.46009419        0.10651684        1.27043045        0.07344895        0.00873602        0.00096192
       -9.86986987        1.47466641        0.10809383        1.28271603        0.07402573        0.00884600        0.00098483
       -9.85985986        1.48568106        0.10942407        1.29194645        0.07437219        0.00893251        0.00100585
       -9.84984985        1.49316217        0.11050434        1.29814849        0.07448956        0.00899501        0.00102477
       -9.83983984        1.49716016        0.11133232        1.30137162        0.07438164        0.00903318        0.00104141
       -9.82982983        1.49774834        0.11190651        1.30168466        0.07405464        0.00904693        0.00105560
       -9.81981982        1.49501955        0.11222619        1.29917268        0.07351708        0.00903639        0.00106721
       -9.80980981        1.48908317        0.11229136        1.29393421        0.07277953        0.00900193        0.00107613
       -9.79979980        1.48006248        0.11210273        1.28607891        0.07185436        0.00894417        0.00108232
       -9.78978979        1.46809250        0.11166170        1.27572566        0.07075548        0.00886392        0.00108575
       -9.77977978        1.45331830        0.11097049        1.26300115        0.06949798        0.00876223        0.00108645
       -9.76976977        1.43589377        0.11003218        1.24803890        0.06809787        0.00864033        0.00108449
       -9.75975976        1.41598094        0.10885087        1.23097874        0.06657172        0.00849964        0.00107997
       -9.74974975        1.39374957        0.10743182        1.21196662        0.06493637        0.00834173        0.00107304
       -9.73973974        1.36937711        0.10578167        1.19115458        0.06320871        0.00816828        0.00106387
       -9.72972973        1.34304876        0.10390863        1.16870093        0.06140540        0.00798112        0.00105268
       -9.71971972        1.31495745        0.10182263        1.14477026        0.05954273        0.00778214        0.00103969
       -9.70970971        1.28530374        0.09953551        1.11953334        0.05763642        0.00757333        0.00102515
       -9.69969970        1.25429522        0.09706106        1.09316662        0.05570154        0.00735671        0.00100929
       -9.68968969        1.22214563        0.09441509        1.06585139        0.05375240        0.00713434        0.00099239
       -9.67967968        1.18907326        0.09161534        1.03777240        0.05180252        0.00690830        0.00097470
       -9.66966967        1.15529902        0.08868133        1.00911610        0.04986451        0.00668063        0.00095645
       -9.65965966        1.12104396        0.08563410        0.98006851        0.04795009        0.00645336        0.00093790
       -9.64964965        1.08652650        0.08249593        0.95081283        0.04607006        0.00622842        0.00091926
       -9.63963964        1.05195959        0.07928987        0.92152709        0.04423420        0.00600768        0.00090075
       -9.62962963        1.01754803        0.07603937        0.89238190        0.04245135        0.00579287        0.00088255
       -9.61961962        0.98348616        0.07276777        0.86353867        0.04072930        0.00558556        0.00086486
       -9.60960961        0.94995615        0.06949785        0.83514844        0.03907485        0.00538717        0.00084784
       -9.59959960        0.91712723        0.06625143        0.80735141        0.03749382        0.00519894        0.00083164
       -9.58958959        0.88515573        0.06304895        0.78027745        0.03599105        0.00502188        0.00081641
       -9.57957958        0.85418626        0.05990923        0.75404743        0.03457052        0.00485680        0.00080228
       -9.56956957        0.82435373        0.05684924        0.72877539        0.03323540        0.00470431        0.00078940
       -9.55955956        0.79578625        0.05388398        0.70457140        0.03198815        0.00456482        0.00077790
       -9.54954955        0.76860854        0.05102649        0.68154488        0.03083072        0.00443854        0.00076792
       -9.53953954        0.74294572        0.04828791        0.65980805        0.02976460        0.00432555        0.00075961
       -9.52952953        0.71892694        0.04567763        0.63947934        0.02879106        0.00422578        0.00075314
       -9.51951952        0.69668872        0.04320347        0.62068628        0.02791126        0.00413905        0.00074866
       -9.50950951        0.67637749        0.04087195        0.60356766        0.02712639        0.00406512        0.00074637
       -9.49949950        0.65815122        0.03868849        0.58827469        0.02643783        0.00400375        0.00074646
       -9.48948949        0.64217970        0.03665770        0.57497102        0.02584717        0.00395467        0.00074913
       -9.47947948        0.62864351        0.03478351        0.56383135        0.02535637        0.00391769        0.00075458
       -9.46946947        0.61773155        0.03306941        0.55503874        0.02496769        0.00389268        0.00076304
       -9.45945946        0.60963707        0.03151850        0.54878054        0.02468372        0.00387960        0.00077471
       -9.44944945        0.60455241        0.03013353        0.54524318        0.02450734        0.00387858        0.00078979
       -9.43943944        0.60266255        0.02891690        0.54460579        0.02444154        0.00388984        0.00080849
       -9.42942943        0.60413776        0.02787054        0.54703313        0.02448934        0.00391379        0.00083096
       -9.41941942        0.60912555        0.02699577        0.55266788        0.02465359        0.00395095        0.00085736
       -9.40940941        0.61774230        0.02629307        0.56162271        0.02493673        0.00400200        0.00088778
       -9.39939940        0.63006491        0.02576184        0.57397246        0.02534060        0.00406770        0.00092230
       -9.38938939        0.64612277        0.02540015        0.58974663        0.02586615        0.00414891        0.00096094
       -9.37937938        0.66589047        0.02520443        0.60892272        0.02651318        0.00424649        0.00100366
       -9.36936937        0.68928150        0.02516927        0.63142048        0.02728010        0.00436129        0.00105036
       -9.35935936        0.71614341        0.02528714        0.65709761        0.02816370        0.00449408        0.00110089
       -9.34934935        0.74625457        0.02554826        0.68574697        0.02915887        0.00464546        0.00115501
       -9.33933934        0.77932292        0.02594049        0.71709567        0.03025852        0.00481582        0.00121241
       -9.32932933        0.81498681        0.02644932        0.75080614        0.03145340        0.00500524        0.00127271
       -9.31931932        0.85281813        0.02705794        0.78647925        0.03273203        0.00521343        0.00133547
       -9.30930931        0.89232776        0.02774744        0.82365967        0.03408078        0.00543971        0.00140015
       -9.29929930        0.93297330        0.02849712        0.86184321        0.03548392        0.00568289        0.00146617
       -9.28928929        0.97416901        0.02928481        0.90048624        0.03692379        0.00594129        0.00153287
       -9.27927928        1.01529761        0.03008744        0.93901676        0.03838113        0.00621271        0.00159956
       -9.26926927        1.05572379        0.03088149        0.97684700        0.03983536        0.00649445        0.00166549
       -9.25925926        1.09480891        0.03164366        1.01338702        0.04126503        0.00678329        0.00172990
       -9.24924925        1.13192639        0.03235145        1.04805901        0.04264832        0.00707561        0.00179201
       -9.23923924        1.16647742        0.03298377        1.08031166        0.04396352        0.00736741        0.00185105
       -9.22922923        1.19790617        0.03352156        1.10963429        0.04518963        0.00765442        0.00190627
       -9.21921922        1.22571425        0.03394824        1.13556995        0.04630690        0.00793220        0.00195696
       -9.20920921        1.24947366        0.03425022        1.15772731        0.04729737        0.00819629        0.00200247
       -9.19919920        1.26883775        0.03441713        1.17579073        0.04814540        0.00844230        0.00204219
       -9.18918919        1.28355000        0.03444212        1.18952811        0.04883808        0.00866605        0.00207564
       -9.17917918        1.29345000        0.03432183        1.19879640        0.04936566        0.00886373        0.00210239
       -9.16916917        1.29847673        0.03405642        1.20354445        0.04972177        0.00903197        0.00212213
       -9.15915916        1.29866877        0.03364930        1.20381316        0.04990366        0.00916798        0.00213467
       -9.14914915        1.29416166        0.03310694        1.19973295        0.04991224        0.00926962        0.00213991
       -9.13913914        1.28518247        0.03243843        1.19151866        0.04975201        0.00933549        0.00213788
       -9.12912913        1.27204175        0.03165505        1.17946208        0.04943097        0.00936492        0.00212873
       -9.11911912        1.25512335        0.03076984        1.16392245        0.04896032        0.00935806        0.00211269
       -9.10910911        1.23487220        0.02979711        1.14531510        0.04835409        0.00931579        0.00209012
       -9.09909910        1.21178078        0.02875192        1.12409888        0.04762875        0.00923976        0.00206146
       -9.08908909        1.18637455        0.02764973        1.10076259        0.04680269        0.00913229        0.00202725
       -9.07907908        1.15919692        0.02650593        1.07581094        0.04589564        0.00899632        0.00198809
       -9.06906907        1.13079413        0.02533558        1.04975048        0.04492814        0.00883530        0.00194463
       -9.05905906        1.10170065        0.02415307        1.02307600        0.04392092        0.00865307        0.00189760
       -9.04904905        1.07242550        0.02297195        0.99625770        0.04289436        0.00845378        0.00184771
       -9.03903904        1.04343981        0.02180477        0.96972966        0.04186790        0.00824175        0.00179573
       -9.02902903        1.01516614        0.02066295        0.94387987        0.04085960        0.00802131        0.00174240
       -9.01901902        0.98796977        0.01955669        0.91904220        0.03988568        0.00779675        0.00168845
       -9.00900901        0.96215226        0.01849497        0.89549040        0.03896018        0.00757213        0.00163458
       -8.99899900        0.93794735        0.01748549        0.87343451        0.03809468        0.00735124        0.00158143
       -8.98898899        0.91551939        0.01653469        0.85301951        0.03729816        0.00713744        0.00152959
       -8.97897898        0.89496420        0.01564772        0.83432634        0.03657694        0.00693366        0.00147955
       -8.96896897        0.87631226        0.01482844        0.81737510        0.03593467        0.00674228        0.00143177
       -8.95895896        0.85953396        0.01407949        0.80213028        0.03537249        0.00656514        0.00138656
       -8.94894895        0.84454678        0.01340227        0.78850758        0.03488924        0.00640349        0.00134420
       -8.93893894        0.83122379        0.01279699        0.77638219        0.03448172        0.00625806        0.00130483
       -8.92892893        0.81940321        0.01226275        0.76559788        0.03414504        0.00612900        0.00126855
       -8.91891892        0.80889854        0.01179758        0.75597665        0.03387298        0.00601600        0.00123534
       -8.90890891        0.79950879        0.01139854        0.74732835        0.03365842        0.00591834        0.00120514
       -8.89889890        0.79102837        0.01106185        0.73946002        0.03349372        0.00583493        0.00117783
       -8.88888889        0.78325626        0.01078304        0.73218446        0.03337108        0.00576445        0.00115324
       -8.87887888        0.77600423        0.01055702        0.72532776        0.03328295        0.00570536        0.00113115
       -8.86886887        0.76910365        0.01037833        0.71873562        0.03322228        0.00565607        0.00111134
       -8.85885886        0.76241095        0.01024126        0.71227829        0.03318281        0.00561499        0.00109359
       -8.84884885        0.75581152        0.01014002        0.70585400        0.03315924        0.00558058        0.00107768
       -8.83883884        0.74922202        0.01006887        0.69939093        0.03314738        0.00555146        0.00106338
       -8.82882883        0.74259124        0.01002235        0.69284776        0.03314416        0.00552643        0.00105054
       -8.81881882        0.73589942        0.00999532        0.68621288        0.03314770        0.00550453        0.00103898
       -8.80880881        0.72915635        0.00998311        0.67950238        0.03315721        0.00548506        0.00102860
       -8.79879880        0.72239814        0.00998158        0.67275682        0.03317287        0.00546756        0.00101931
       -8.78878879        0.71568303        0.00998719        0.66603722        0.03319569        0.00545185        0.00101108
       -8.77877878        0.70908622        0.00999703        0.65942000        0.03322733        0.00543798        0.00100389
       -8.76876877        0.70269400        0.01000876        0.65299142        0.03326985        0.00542620        0.00099776
       -8.75875876        0.69659733        0.01002065        0.64684148        0.03332553        0.00541691        0.00099276
       -8.74874875        0.69088509        0.01003148        0.64105751        0.03339653        0.00541063        0.00098893
       -8.73873874        0.68563736        0.01004045        0.63571782        0.03348475        0.00540795        0.00098638
       -8.72872873        0.68091885        0.01004716        0.63088555        0.03359153        0.00540944        0.00098517
       -8.71871872        0.67677301        0.01005144        0.62660313        0.03371744        0.00541561        0.00098539
       -8.70870871        0.67321703        0.01005329        0.62288761        0.03386213        0.00542689        0.00098711
       -8.69869870        0.67023810        0.01005279        0.61972727        0.03402415        0.00544353        0.00099036
       -8.68868869        0.66779129        0.01004999        0.61707962        0.03420087        0.00546562        0.00099518
       -8.67867868        0.66579913        0.01004485        0.61487125        0.03438845        0.00549302        0.00100155
       -8.66866867        0.66415328        0.01003721        0.61299944        0.03458185        0.00552538        0.00100940
       -8.65865866        0.66271804        0.01002670        0.61133568        0.03477490        0.00556209        0.00101866
       -8.64864865        0.66133580        0.01001280        0.60973099        0.03496048        0.00560235        0.00102918
       -8.63863864        0.65983411        0.00999478        0.60802275        0.03513067        0.00564514        0.00104078
       -8.62862863        0.65803397        0.00997178        0.60604263        0.03527704        0.00568928        0.00105324
       -8.61861862        0.65575888        0.00994284        0.60362539        0.03539093        0.00573342        0.00106630
       -8.60860861        0.65284416        0.00990694        0.60061765        0.03546373        0.00577617        0.00107967
       -8.59859860        0.64914589        0.00986310        0.59688646        0.03548724        0.00581605        0.00109304
       -8.58858859        0.64454885        0.00981043        0.59232679        0.03545395        0.00585159        0.00110608
       -8.57857858        0.63897315        0.00974820        0.58686770        0.03535739        0.00588141        0.00111844
       -8.56856857        0.63237887        0.00967590        0.58047661        0.03519237        0.00590420        0.00112979
       -8.55855856        0.62476868        0.00959329        0.57316156        0.03495523        0.00591881        0.00113980
       -8.54854855        0.61618819        0.00950043        0.56497128        0.03464403        0.00592427        0.00114817
       -8.53853854        0.60672407        0.00939772        0.55599313        0.03425870        0.00591988        0.00115464
       -8.52852853        0.59650019        0.00928589        0.54634904        0.03380112        0.00590517        0.00115897
       -8.51851852        0.58567201        0.00916598        0.53618995        0.03327514        0.00587995        0.00116099
       -8.50850851        0.57441980        0.00903934        0.52568893        0.03268656        0.00584436        0.00116061
       -8.49849850        0.56294088        0.00890757        0.51503360        0.03204309        0.00579885        0.00115776
       -8.48848849        0.55144173        0.00877252        0.50441836        0.03135417        0.00574418        0.00115249
       -8.47847848        0.54013017        0.00863621        0.49403680        0.03063083        0.00568144        0.00114489
       -8.46846847        0.52920811        0.00850080        0.48407473        0.02988545        0.00561199        0.00113513
