#  aims_uuid : 34ED089B-8E9C-4626-A65E-7A0C34F4742C                                
#  angular momentum projected density of states for species S as calculated by FHI-aims 
# The energy reference for this output is the chemical potential, mu =      -5.302743 eV
#      Energy (eV)         total dos     l= 0              l= 1              l= 2              l= 3              l= 4
       -4.69725688        1.03618315        0.07736176        0.89363786        0.05821943        0.00639644        0.00056767
       -4.68724687        1.09173805        0.08242329        0.94061077        0.06139728        0.00670688        0.00059983
       -4.67723686        1.14676150        0.08745809        0.98716513        0.06449462        0.00700955        0.00063411
       -4.66722685        1.20078159        0.09242430        1.03289632        0.06748811        0.00730253        0.00067034
       -4.65721684        1.25331944        0.09727792        1.07739451        0.07035473        0.00758399        0.00070829
       -4.64720683        1.30389162        0.10197312        1.12024682        0.07307177        0.00785219        0.00074771
       -4.63719682        1.35201280        0.10646270        1.16103954        0.07561681        0.00810545        0.00078830
       -4.62718681        1.39719929        0.11069877        1.19936088        0.07796779        0.00834213        0.00082972
       -4.61717680        1.43897379        0.11463367        1.23480476        0.08010315        0.00856064        0.00087157
       -4.60716679        1.47687173        0.11822098        1.26697584        0.08200205        0.00875945        0.00091342
       -4.59715678        1.51044948        0.12141679        1.29549613        0.08364469        0.00893707        0.00095480
       -4.58714677        1.53929417        0.12418105        1.32001302        0.08501275        0.00909212        0.00099523
       -4.57713676        1.56303491        0.12647895        1.34020855        0.08608991        0.00922331        0.00103418
       -4.56712675        1.58135485        0.12828223        1.35580958        0.08686237        0.00932954        0.00107113
       -4.55711674        1.59400327        0.12957039        1.36659798        0.08731946        0.00940988        0.00110556
       -4.54710673        1.60080686        0.13033160        1.37242045        0.08745418        0.00946367        0.00113696
       -4.53709672        1.60167928        0.13056333        1.37319690        0.08726365        0.00949054        0.00116486
       -4.52708671        1.59662820        0.13027261        1.36892683        0.08674949        0.00949043        0.00118884
       -4.51707670        1.58575905        0.12947580        1.35969304        0.08591803        0.00946364        0.00120854
       -4.50706669        1.56927513        0.12819805        1.34566222        0.08478036        0.00941082        0.00122368
       -4.49705668        1.54747373        0.12647231        1.32708222        0.08335217        0.00933297        0.00123406
       -4.48704667        1.52073857        0.12433801        1.30427609        0.08165349        0.00923139        0.00123958
       -4.47703666        1.48952881        0.12183956        1.27763312        0.07970816        0.00910772        0.00124024
       -4.46702665        1.45436532        0.11902468        1.24759741        0.07754329        0.00896381        0.00123613
       -4.45701664        1.41581497        0.11594266        1.21465469        0.07518851        0.00880170        0.00122743
       -4.44700663        1.37447397        0.11264278        1.17931800        0.07267519        0.00862358        0.00121442
       -4.43699662        1.33095095        0.10917285        1.14211322        0.07003572        0.00843172        0.00119744
       -4.42698661        1.28585091        0.10557799        1.10356494        0.06730265        0.00822840        0.00117693
       -4.41697660        1.23976047        0.10189968        1.06418352        0.06450803        0.00801588        0.00115335
       -4.40696659        1.19323515        0.09817519        1.02445366        0.06168273        0.00779635        0.00112721
       -4.39695658        1.14678897        0.09443718        0.98482496        0.05885588        0.00757190        0.00109905
       -4.38694657        1.10088647        0.09071372        0.94570446        0.05605440        0.00734449        0.00106940
       -4.37693656        1.05593718        0.08702838        0.90745138        0.05330270        0.00711594        0.00103879
       -4.36692655        1.01229244        0.08340060        0.87037381        0.05062237        0.00688793        0.00100774
       -4.35691654        0.97024429        0.07984609        0.83472737        0.04803210        0.00666199        0.00097674
       -4.34690653        0.93002612        0.07637735        0.80071545        0.04554760        0.00643949        0.00094623
       -4.33689652        0.89181498        0.07300408        0.76849096        0.04318162        0.00622170        0.00091663
       -4.32688651        0.85573516        0.06973364        0.73815941        0.04094410        0.00600973        0.00088828
       -4.31687650        0.82186294        0.06657147        0.70978307        0.03884231        0.00580458        0.00086151
       -4.30686649        0.79023231        0.06352132        0.68338614        0.03688109        0.00560718        0.00083658
       -4.29685648        0.76084152        0.06058559        0.65896075        0.03506314        0.00541834        0.00081371
       -4.28684647        0.73366043        0.05776547        0.63647377        0.03338930        0.00523881        0.00079308
       -4.27683646        0.70863836        0.05506117        0.61587412        0.03185893        0.00506928        0.00077487
       -4.26682645        0.68571242        0.05247203        0.59710057        0.03047025        0.00491038        0.00075920
       -4.25681644        0.66481599        0.04999675        0.58008962        0.02922071        0.00476273        0.00074619
       -4.24680643        0.64588713        0.04763352        0.56478341        0.02810734        0.00462689        0.00073597
       -4.23679642        0.62887662        0.04538026        0.55113716        0.02712711        0.00450344        0.00072865
       -4.22678641        0.61375519        0.04323484        0.53912586        0.02627720        0.00439293        0.00072436
       -4.21677640        0.60051975        0.04119530        0.52875000        0.02555526        0.00429593        0.00072325
       -4.20676639        0.58919811        0.03926009        0.52003989        0.02495963        0.00421302        0.00072548
       -4.19675638        0.57985207        0.03742824        0.51305839        0.02448943        0.00414478        0.00073122
       -4.18674637        0.57257866        0.03569958        0.50790189        0.02414465        0.00409186        0.00074068
       -4.17673636        0.56750928        0.03407484        0.50469938        0.02392613        0.00405489        0.00075405
       -4.16672635        0.56480698        0.03255566        0.50360970        0.02383549        0.00403456        0.00077157
       -4.15671634        0.56466167        0.03114465        0.50481698        0.02387499        0.00403161        0.00079344
       -4.14670633        0.56728374        0.02984524        0.50852446        0.02404734        0.00404681        0.00081989
       -4.13669632        0.57289601        0.02866151        0.51494690        0.02435551        0.00408097        0.00085111
       -4.12668631        0.58172457        0.02759804        0.52430187        0.02480244        0.00413493        0.00088729
       -4.11667630        0.59398864        0.02665951        0.53680021        0.02539077        0.00420959        0.00092856
       -4.10666629        0.60988981        0.02585047        0.55263589        0.02612258        0.00430586        0.00097503
       -4.09665628        0.62960100        0.02517493        0.57197561        0.02699910        0.00442462        0.00102674
       -4.08664627        0.65325540        0.02463598        0.59494852        0.02802044        0.00456677        0.00108369
       -4.07663626        0.68093575        0.02423546        0.62163607        0.02918532        0.00473311        0.00114580
       -4.06662625        0.71266413        0.02397355        0.65206253        0.03049083        0.00492431        0.00121290
       -4.05661624        0.74839265        0.02384851        0.68618631        0.03193217        0.00514088        0.00128477
       -4.04660623        0.78799532        0.02385634        0.72389233        0.03350250        0.00538308        0.00136108
       -4.03659622        0.83126142        0.02399061        0.76498593        0.03519268        0.00565082        0.00144139
       -4.02658621        0.87789070        0.02424230        0.80918838        0.03699122        0.00594362        0.00152519
       -4.01657620        0.92749083        0.02459977        0.85613460        0.03888409        0.00626051        0.00161186
       -4.00656619        0.97957736        0.02504877        0.90537316        0.04085477        0.00659997        0.00170068
       -3.99655618        1.03357669        0.02557265        0.95636913        0.04288419        0.00695988        0.00179083
       -3.98654617        1.08883212        0.02615253        1.00850979        0.04495093        0.00733746        0.00188142
       -3.97653616        1.14461331        0.02676772        1.06111353        0.04703135        0.00772926        0.00197144
       -3.96652615        1.20012912        0.02739616        1.11344190        0.04909995        0.00813123        0.00205987
       -3.95651614        1.25454369        0.02801498        1.16471465        0.05112976        0.00853868        0.00214561
       -3.94650613        1.30699549        0.02860108        1.21412758        0.05309287        0.00894642        0.00222754
       -3.93649612        1.35661881        0.02913180        1.26087255        0.05496105        0.00934887        0.00230453
       -3.92648611        1.40256692        0.02958565        1.30415914        0.05670644        0.00974018        0.00237550
       -3.91647610        1.44403611        0.02994293        1.34323708        0.05830231        0.01011438        0.00243941
       -3.90646609        1.48028959        0.03018638        1.37741846        0.05972383        0.01046561        0.00249530
       -3.89645608        1.51068010        0.03030176        1.40609887        0.06094888        0.01078826        0.00254233
       -3.88644607        1.53467026        0.03027829        1.42877631        0.06195872        0.01107716        0.00257978
       -3.87643606        1.55184968        0.03010903        1.44506711        0.06273866        0.01132778        0.00260709
       -3.86642605        1.56194782        0.02979104        1.45471795        0.06327859        0.01153634        0.00262389
       -3.85641604        1.56484209        0.02932547        1.45761334        0.06357331        0.01170000        0.00262998
       -3.84640603        1.56056069        0.02871740        1.45377836        0.06362275        0.01181685        0.00262534
       -3.83639602        1.54928008        0.02797564        1.44337629        0.06343193        0.01188605        0.00261017
       -3.82638601        1.53131722        0.02711233        1.42670146        0.06301080        0.01190780        0.00258483
       -3.81637600        1.50711702        0.02614239        1.40416761        0.06237385        0.01188331        0.00254986
       -3.80636599        1.47723552        0.02508299        1.37629236        0.06153951        0.01181470        0.00250597
       -3.79635598        1.44231991        0.02395285        1.34367860        0.06052953        0.01170496        0.00245397
       -3.78634597        1.40308602        0.02277161        1.30699375        0.05936811        0.01155775        0.00239480
       -3.77633596        1.36029468        0.02155910        1.26694771        0.05808108        0.01137729        0.00232950
       -3.76632595        1.31472770        0.02033475        1.22427063        0.05669501        0.01116817        0.00225913
       -3.75631594        1.26716462        0.01911702        1.17969131        0.05523629        0.01093520        0.00218480
       -3.74630593        1.21836117        0.01792287        1.13391708        0.05373040        0.01068323        0.00210759
       -3.73629592        1.16903001        0.01676739        1.08761591        0.05220111        0.01041701        0.00202859
       -3.72628591        1.11982452        0.01566353        1.04140119        0.05066996        0.01014105        0.00194879
       -3.71627590        1.07132597        0.01462189        0.99581969        0.04915574        0.00985950        0.00186914
       -3.70626589        1.02403434        0.01365067        0.95134283        0.04767427        0.00957609        0.00179049
       -3.69625588        0.97836285        0.01275571        0.90836137        0.04623818        0.00929402        0.00171356
       -3.68624587        0.93463616        0.01194058        0.86718355        0.04485703        0.00901600        0.00163900
       -3.67623586        0.89309193        0.01120681        0.82803630        0.04353737        0.00874416        0.00156730
       -3.66622585        0.85388559        0.01055409        0.79106940        0.04228310        0.00848014        0.00149886
       -3.65621584        0.81709762        0.00998062        0.75636214        0.04109584        0.00822510        0.00143393
       -3.64620583        0.78274314        0.00948332        0.72393199        0.03997537        0.00797977        0.00137269
       -3.63619582        0.75078297        0.00905823        0.69374483        0.03892017        0.00774453        0.00131521
       -3.62618581        0.72113569        0.00870074        0.66572606        0.03792793        0.00751949        0.00126147
       -3.61617580        0.69369009        0.00840588        0.63977221        0.03699604        0.00730457        0.00121138
       -3.60616579        0.66831729        0.00816852        0.61576233        0.03612205        0.00709957        0.00116482
       -3.59615578        0.64488209        0.00798359        0.59356860        0.03530405        0.00690423        0.00112161
       -3.58614577        0.62325295        0.00784616        0.57306585        0.03454102        0.00671834        0.00108158
       -3.57613576        0.60331018        0.00775155        0.55413941        0.03383294        0.00654174        0.00104454
       -3.56612575        0.58495208        0.00769536        0.53669107        0.03318096        0.00637439        0.00101030
       -3.55611574        0.56809884        0.00767345        0.52064300        0.03258732        0.00621637        0.00097870
       -3.54610573        0.55269407        0.00768192        0.50593940        0.03205527        0.00606788        0.00094960
       -3.53609572        0.53870417        0.00771700        0.49254621        0.03158879        0.00592928        0.00092289
       -3.52608571        0.52611567        0.00777502        0.48044878        0.03119238        0.00580099        0.00089849
       -3.51607570        0.51493078        0.00785234        0.46964794        0.03087063        0.00568352        0.00087634
       -3.50606569        0.50516176        0.00794524        0.46015483        0.03062788        0.00557739        0.00085641
       -3.49605568        0.49682432        0.00804989        0.45198481        0.03046782        0.00548311        0.00083868
       -3.48604567        0.48993069        0.00816234        0.44515098        0.03039312        0.00540110        0.00082316
       -3.47603566        0.48448275        0.00827853        0.43965765        0.03040505        0.00533170        0.00080983
       -3.46602565        0.48046562        0.00839428        0.43549432        0.03050324        0.00527507        0.00079870
       -3.45601564        0.47784221        0.00850543        0.43263038        0.03068546        0.00523118        0.00078976
       -3.44600563        0.47654893        0.00860784        0.43101088        0.03094741        0.00519982        0.00078298
       -3.43599562        0.47649289        0.00869755        0.43055373        0.03128278        0.00518052        0.00077830
       -3.42598561        0.47755065        0.00877090        0.43114825        0.03168320        0.00517263        0.00077567
       -3.41597560        0.47956869        0.00882457        0.43265549        0.03213840        0.00517526        0.00077498
       -3.40596559        0.48236561        0.00885578        0.43490995        0.03263644        0.00518735        0.00077610
       -3.39595558        0.48573583        0.00886229        0.43772302        0.03316395        0.00520769        0.00077888
       -3.38594557        0.48945490        0.00884253        0.44088774        0.03370653        0.00523495        0.00078315
       -3.37593556        0.49328594        0.00879560        0.44418479        0.03424911        0.00526773        0.00078871
       -3.36592555        0.49698715        0.00872132        0.44738948        0.03477640        0.00530460        0.00079534
       -3.35591554        0.50031992        0.00862018        0.45027946        0.03527333        0.00534415        0.00080280
       -3.34590553        0.50305730        0.00849329        0.45264259        0.03572549        0.00538505        0.00081087
       -3.33589552        0.50499226        0.00834237        0.45428495        0.03611958        0.00542606        0.00081930
       -3.32588551        0.50594552        0.00816960        0.45503822        0.03644378        0.00546606        0.00082785
       -3.31587550        0.50577238        0.00797756        0.45476629        0.03668811        0.00550413        0.00083630
       -3.30586549        0.50436835        0.00776912        0.45337065        0.03684469        0.00553947        0.00084442
       -3.29585548        0.50167306        0.00754732        0.45079422        0.03690799        0.00557151        0.00085202
       -3.28584547        0.49767238        0.00731531        0.44702344        0.03687489        0.00559981        0.00085893
       -3.27583546        0.49239859        0.00707620        0.44208852        0.03674476        0.00562412        0.00086499
       -3.26582545        0.48592852        0.00683302        0.43606164        0.03651943        0.00564434        0.00087010
       -3.25581544        0.47837980        0.00658864        0.42905352        0.03620301        0.00566047        0.00087416
       -3.24580543        0.46990545        0.00634573        0.42120821        0.03580176        0.00567264        0.00087711
       -3.23579542        0.46068720        0.00610672        0.41269669        0.03532380        0.00568105        0.00087893
       -3.22578541        0.45092779        0.00587381        0.40370959        0.03477882        0.00568597        0.00087960
       -3.21577540        0.44084295        0.00564894        0.39444939        0.03417776        0.00568769        0.00087916
       -3.20576539        0.43065331        0.00543380        0.38512279        0.03353250        0.00568656        0.00087766
       -3.19575538        0.42057698        0.00522992        0.37593345        0.03285552        0.00568293        0.00087516
       -3.18574537        0.41082295        0.00503864        0.36707575        0.03215962        0.00567718        0.00087176
       -3.17573536        0.40158592        0.00486118        0.35872978        0.03145767        0.00566974        0.00086756
       -3.16572535        0.39304257        0.00469868        0.35105774        0.03076239        0.00566106        0.00086271
