#  aims_uuid : 34ED089B-8E9C-4626-A65E-7A0C34F4742C                                
#  angular momentum projected density of states for species Mo as calculated by FHI-aims 
# The energy reference for this output is the chemical potential, mu =      -5.302743 eV
#      Energy (eV)         total dos     l= 0              l= 1              l= 2              l= 3              l= 4
       -4.69725688        0.98359335        0.03606682        0.15305814        0.78208524        0.01067889        0.00170425
       -4.68724687        1.02715942        0.04028162        0.16214640        0.81169706        0.01123654        0.00179780
       -4.67723686        1.06979096        0.04483268        0.17121769        0.84003728        0.01181371        0.00188960
       -4.66722685        1.11115767        0.04971325        0.18017839        0.86688104        0.01240600        0.00197898
       -4.65721684        1.15094032        0.05490977        0.18893159        0.89202487        0.01300879        0.00206530
       -4.64720683        1.18883263        0.06040110        0.19737846        0.91528785        0.01361730        0.00214794
       -4.63719682        1.22454269        0.06615796        0.20541978        0.93651199        0.01422667        0.00222629
       -4.62718681        1.25779402        0.07214253        0.21295758        0.95556208        0.01483204        0.00229979
       -4.61717680        1.28832674        0.07830828        0.21989689        0.97232515        0.01542854        0.00236789
       -4.60716679        1.31589895        0.08460013        0.22614749        0.98670984        0.01601137        0.00243012
       -4.59715678        1.34028865        0.09095496        0.23162592        0.99864592        0.01657581        0.00248604
       -4.58714677        1.36129627        0.09730248        0.23625731        1.00808394        0.01711727        0.00253527
       -4.57713676        1.37874779        0.10356642        0.23997733        1.01499523        0.01763129        0.00257750
       -4.56712675        1.39249829        0.10966614        0.24273394        1.01937208        0.01811362        0.00261252
       -4.55711674        1.40243585        0.11551851        0.24448895        1.02122803        0.01856020        0.00264016
       -4.54710673        1.40848532        0.12104007        0.24521937        1.02059824        0.01896727        0.00266036
       -4.53709672        1.41061175        0.12614933        0.24491826        1.01753962        0.01933138        0.00267316
       -4.52708671        1.40882314        0.13076917        0.24359519        1.01213067        0.01964945        0.00267865
       -4.51707670        1.40317216        0.13482919        0.24127625        1.00447082        0.01991885        0.00267705
       -4.50706669        1.39375662        0.13826789        0.23800340        0.99467930        0.02013743        0.00266860
       -4.49705668        1.38071868        0.14103468        0.23383343        0.98289335        0.02030355        0.00265367
       -4.48704667        1.36424261        0.14309141        0.22883635        0.96926604        0.02041618        0.00263264
       -4.47703666        1.34455134        0.14441362        0.22309336        0.95396355        0.02047487        0.00260595
       -4.46702665        1.32190185        0.14499114        0.21669456        0.93716228        0.02047979        0.00257408
       -4.45701664        1.29657978        0.14482832        0.20973634        0.91904581        0.02043177        0.00253753
       -4.44700663        1.26889346        0.14394366        0.20231877        0.89980199        0.02033224        0.00249680
       -4.43699662        1.23916775        0.14236895        0.19454296        0.87962019        0.02018323        0.00245241
       -4.42698661        1.20773780        0.14014800        0.18650860        0.85868896        0.01998740        0.00240485
       -4.41697660        1.17494324        0.13733500        0.17831169        0.83719407        0.01974788        0.00235461
       -4.40696659        1.14112271        0.13399259        0.17004264        0.81531698        0.01946833        0.00230217
       -4.39695658        1.10660898        0.13018980        0.16178474        0.79323365        0.01915280        0.00224799
       -4.38694657        1.07172473        0.12599984        0.15361298        0.77111371        0.01880568        0.00219252
       -4.37693656        1.03677886        0.12149800        0.14559333        0.74911972        0.01843161        0.00213619
       -4.36692655        1.00206345        0.11675958        0.13778237        0.72740666        0.01803540        0.00207944
       -4.35691654        0.96785116        0.11185810        0.13022725        0.70612124        0.01762189        0.00202268
       -4.34690653        0.93439316        0.10686363        0.12296600        0.68540131        0.01719589        0.00196633
       -4.33689652        0.90191744        0.10184150        0.11602804        0.66537503        0.01676205        0.00191081
       -4.32688651        0.87062760        0.09685126        0.10943489        0.64616010        0.01632482        0.00185653
       -4.31687650        0.84070202        0.09194590        0.10320101        0.62786291        0.01588829        0.00180391
       -4.30686649        0.81229354        0.08717140        0.09733472        0.61057784        0.01545622        0.00175336
       -4.29685648        0.78552977        0.08256652        0.09183923        0.59438679        0.01503191        0.00170532
       -4.28684647        0.76051387        0.07816280        0.08671361        0.57935901        0.01461827        0.00166018
       -4.27683646        0.73732607        0.07398474        0.08195380        0.56555143        0.01421773        0.00161838
       -4.26682645        0.71602589        0.07005012        0.07755363        0.55300949        0.01383233        0.00158032
       -4.25681644        0.69665487        0.06637047        0.07350570        0.54176850        0.01346376        0.00154644
       -4.24680643        0.67924002        0.06295156        0.06980236        0.53185558        0.01311338        0.00151714
       -4.23679642        0.66379766        0.05979395        0.06643649        0.52329198        0.01278237        0.00149287
       -4.22678641        0.65033753        0.05689360        0.06340232        0.51609583        0.01247172        0.00147406
       -4.21677640        0.63886711        0.05424247        0.06069605        0.51028505        0.01218239        0.00146116
       -4.20676639        0.62939580        0.05182907        0.05831650        0.50588028        0.01191531        0.00145465
       -4.19675638        0.62193886        0.04963912        0.05626549        0.50290772        0.01167152        0.00145501
       -4.18674637        0.61652078        0.04765610        0.05454821        0.50140155        0.01145214        0.00146277
       -4.17673636        0.61317812        0.04586185        0.05317335        0.50140599        0.01125846        0.00147848
       -4.16672635        0.61196137        0.04423713        0.05215305        0.50297661        0.01109189        0.00150270
       -4.15671634        0.61293596        0.04276218        0.05150272        0.50618101        0.01095401        0.00153603
       -4.14670633        0.61618208        0.04141728        0.05124063        0.51109857        0.01084650        0.00157909
       -4.13669632        0.62179349        0.04018325        0.05138726        0.51781935        0.01077112        0.00163251
       -4.12668631        0.62987504        0.03904195        0.05196453        0.52644203        0.01072962        0.00169691
       -4.11667630        0.64053902        0.03797671        0.05299477        0.53707094        0.01072372        0.00177288
       -4.10666629        0.65390037        0.03697268        0.05449956        0.54981214        0.01075501        0.00186098
       -4.09665628        0.67007079        0.03601715        0.05649842        0.56476864        0.01082487        0.00196171
       -4.08664627        0.68915184        0.03509974        0.05900742        0.58203487        0.01093436        0.00207545
       -4.07663626        0.71122729        0.03421252        0.06203763        0.60169050        0.01108417        0.00220248
       -4.06662625        0.73635488        0.03335000        0.06559370        0.62379379        0.01127450        0.00234288
       -4.05661624        0.76455780        0.03250903        0.06967238        0.64837483        0.01150498        0.00249658
       -4.04660623        0.79581630        0.03168862        0.07426119        0.67542866        0.01177456        0.00266326
       -4.03659622        0.83005970        0.03088964        0.07933726        0.70490898        0.01208146        0.00284235
       -4.02658621        0.86715938        0.03011445        0.08486645        0.73672239        0.01242308        0.00303301
       -4.01657620        0.90692313        0.02936652        0.09080276        0.77072383        0.01279594        0.00323410
       -4.00656619        0.94909129        0.02864994        0.09708810        0.80671339        0.01319567        0.00344418
       -3.99655618        0.99333502        0.02796904        0.10365255        0.84443487        0.01361704        0.00366153
       -3.98654617        1.03925718        0.02732787        0.11041501        0.88357624        0.01405393        0.00388414
       -3.97653616        1.08639580        0.02672985        0.11728441        0.92377233        0.01449948        0.00410974
       -3.96652615        1.13423044        0.02617741        0.12416135        0.96460964        0.01494619        0.00433585
       -3.95651614        1.18219112        0.02567169        0.13094022        1.00563332        0.01538609        0.00455981
       -3.94650613        1.22966996        0.02521236        0.13751168        1.04635608        0.01581096        0.00477887
       -3.93649612        1.27603470        0.02479752        0.14376555        1.08626887        0.01621255        0.00499021
       -3.92648611        1.32064411        0.02442362        0.14959383        1.12485274        0.01658287        0.00519105
       -3.91647610        1.36286426        0.02408560        0.15489389        1.16159165        0.01691444        0.00537869
       -3.90646609        1.40208527        0.02377696        0.15957155        1.19598557        0.01720059        0.00555060
       -3.89645608        1.43773774        0.02349008        0.16354409        1.22756338        0.01743569        0.00570450
       -3.88644607        1.46930814        0.02321640        0.16674289        1.25589509        0.01761537        0.00583839
       -3.87643606        1.49635265        0.02294683        0.16911560        1.28060289        0.01773670        0.00595063
       -3.86642605        1.51850882        0.02267210        0.17062785        1.30137063        0.01779828        0.00603996
       -3.85641604        1.53550468        0.02238313        0.17126423        1.31795144        0.01780034        0.00610553
       -3.84640603        1.54716501        0.02207146        0.17102871        1.33017325        0.01774463        0.00614695
       -3.83639602        1.55341455        0.02172957        0.16994419        1.33794212        0.01763443        0.00616424
       -3.82638601        1.55427826        0.02135125        0.16805154        1.34124331        0.01747431        0.00615785
       -3.81637600        1.54987861        0.02093186        0.16540790        1.34014025        0.01726997        0.00612863
       -3.80636599        1.54043018        0.02046856        0.16208452        1.33477133        0.01702799        0.00607778
       -3.79635598        1.52623181        0.01996047        0.15816406        1.32534493        0.01675554        0.00600682
       -3.78634597        1.50765667        0.01940870        0.15373773        1.31213263        0.01646007        0.00591754
       -3.77633596        1.48514059        0.01881632        0.14890218        1.29546108        0.01614909        0.00581193
       -3.76632595        1.45916909        0.01818825        0.14375639        1.27570252        0.01582980        0.00569212
       -3.75631594        1.43026351        0.01753107        0.13839872        1.25326445        0.01550893        0.00556035
       -3.74630593        1.39896661        0.01685270        0.13292411        1.22857847        0.01519250        0.00541884
       -3.73629592        1.36582812        0.01616208        0.12742170        1.20208887        0.01488564        0.00526983
       -3.72628591        1.33139064        0.01546880        0.12197284        1.17424103        0.01459253        0.00511543
       -3.71627590        1.29617627        0.01478267        0.11664950        1.14547014        0.01431629        0.00495767
       -3.70626589        1.26067444        0.01411332        0.11151320        1.11619053        0.01405900        0.00479839
       -3.69625588        1.22533125        0.01346977        0.10661446        1.08678605        0.01382172        0.00463924
       -3.68624587        1.19054077        0.01286016        0.10199260        1.05760174        0.01360460        0.00448167
       -3.67623586        1.15663854        0.01229134        0.09767603        1.02893729        0.01340698        0.00432691
       -3.66622585        1.12389748        0.01176875        0.09368280        1.00104247        0.01322751        0.00417595
       -3.65621584        1.09252639        0.01129618        0.09002159        0.97411467        0.01306438        0.00402957
       -3.64620583        1.06267104        0.01087577        0.08669267        0.94829880        0.01291542        0.00388837
       -3.63619582        1.03441769        0.01050798        0.08368926        0.92368937        0.01277835        0.00375273
       -3.62618581        1.00779884        0.01019171        0.08099873        0.90033461        0.01265090        0.00362289
       -3.61617580        0.98280077        0.00992441        0.07860399        0.87824240        0.01253101        0.00349896
       -3.60616579        0.95937249        0.00970233        0.07648468        0.85738759        0.01241695        0.00338093
       -3.59615578        0.93743546        0.00952077        0.07461841        0.83772012        0.01230745        0.00326871
       -3.58614577        0.91689355        0.00937427        0.07298174        0.81917361        0.01220176        0.00316217
       -3.57613576        0.89764263        0.00925698        0.07155110        0.80167368        0.01209973        0.00306114
       -3.56612575        0.87957927        0.00916284        0.07030355        0.78514566        0.01200179        0.00296543
       -3.55611574        0.86260816        0.00908587        0.06921729        0.76952117        0.01190896        0.00287487
       -3.54610573        0.84664780        0.00902038        0.06827210        0.75474327        0.01182276        0.00278930
       -3.53609572        0.83163442        0.00896109        0.06744959        0.74077003        0.01174514        0.00270857
       -3.52608571        0.81752394        0.00890333        0.06673332        0.72757638        0.01167834        0.00263256
       -3.51607570        0.80429214        0.00884311        0.06610880        0.71515424        0.01162479        0.00256120
       -3.50606569        0.79193322        0.00877714        0.06556339        0.70351133        0.01158693        0.00249442
       -3.49605568        0.78045690        0.00870288        0.06508618        0.69266858        0.01156706        0.00243220
       -3.48604567        0.76988466        0.00861850        0.06466774        0.68265669        0.01156720        0.00237452
       -3.47603566        0.76024523        0.00852286        0.06429994        0.67351211        0.01158892        0.00232140
       -3.46602565        0.75156984        0.00841539        0.06397565        0.66527270        0.01163324        0.00227286
       -3.45601564        0.74388749        0.00829605        0.06368857        0.65797343        0.01170050        0.00222894
       -3.44600563        0.73722064        0.00816524        0.06343294        0.65164249        0.01179029        0.00218969
       -3.43599562        0.73158140        0.00802367        0.06320341        0.64629776        0.01190142        0.00215515
       -3.42598561        0.72696845        0.00787232        0.06299482        0.64194408        0.01203188        0.00212536
       -3.41597560        0.72336484        0.00771230        0.06280211        0.63857118        0.01217891        0.00210034
       -3.40596559        0.72073655        0.00754481        0.06262018        0.63615244        0.01233901        0.00208010
       -3.39595558        0.71903198        0.00737108        0.06244384        0.63464436        0.01250808        0.00206461
       -3.38594557        0.71818209        0.00719228        0.06226772        0.63398676        0.01268153        0.00205380
       -3.37593556        0.71810133        0.00700949        0.06208621        0.63410362        0.01285445        0.00204756
       -3.36592555        0.71868899        0.00682373        0.06189342        0.63490438        0.01302176        0.00204570
       -3.35591554        0.71983111        0.00663585        0.06168315        0.63628569        0.01317842        0.00204799
       -3.34590553        0.72140262        0.00644659        0.06144882        0.63813349        0.01331959        0.00205413
       -3.33589552        0.72326981        0.00625656        0.06118345        0.64032522        0.01344085        0.00206373
       -3.32588551        0.72529277        0.00606625        0.06087961        0.64273224        0.01353831        0.00207635
       -3.31587550        0.72732807        0.00587605        0.06052946        0.64522226        0.01360880        0.00209150
       -3.30586549        0.72923138        0.00568627        0.06012475        0.64766180        0.01364996        0.00210860
       -3.29585548        0.73086010        0.00549713        0.05965693        0.64991868        0.01366030        0.00212706
       -3.28584547        0.73207603        0.00530885        0.05911729        0.65186439        0.01363924        0.00214626
       -3.27583546        0.73274806        0.00512161        0.05849723        0.65337655        0.01358715        0.00216553
       -3.26582545        0.73275491        0.00493558        0.05778853        0.65434131        0.01350522        0.00218426
       -3.25581544        0.73198793        0.00475100        0.05698380        0.65465582        0.01339548        0.00220183
       -3.24580543        0.73035400        0.00456813        0.05607689        0.65423068        0.01326064        0.00221768
       -3.23579542        0.72777848        0.00438730        0.05506347        0.65299243        0.01310399        0.00223129
       -3.22578541        0.72420818        0.00420894        0.05394157        0.65088614        0.01292929        0.00224224
       -3.21577540        0.71961428        0.00403357        0.05271211        0.64787780        0.01274060        0.00225020
       -3.20576539        0.71399512        0.00386185        0.05137944        0.64395673        0.01254219        0.00225492
       -3.19575538        0.70737867        0.00369452        0.04995175        0.63913774        0.01233837        0.00225628
       -3.18574537        0.69982448        0.00353250        0.04844140        0.63346283        0.01213347        0.00225428
       -3.17573536        0.69142512        0.00337680        0.04686513        0.62700252        0.01193167        0.00224900
       -3.16572535        0.68230656        0.00322858        0.04524397        0.61985635        0.01173700        0.00224067
