#  aims_uuid : 34ED089B-8E9C-4626-A65E-7A0C34F4742C                                
#  angular momentum projected density of states for species S as calculated by FHI-aims 
# The energy reference for this output is the chemical potential, mu =      -5.302743 eV
#      Energy (eV)         total dos     l= 0              l= 1              l= 2              l= 3              l= 4
       -4.69725688        0.99860754        0.07787517        0.85775480        0.05578037        0.00657042        0.00062677
       -4.68724687        1.04880893        0.08240941        0.90018861        0.05866898        0.00688643        0.00065550
       -4.67723686        1.09879746        0.08690571        0.94254516        0.06147159        0.00718951        0.00068550
       -4.66722685        1.14818540        0.09133343        0.98449336        0.06416487        0.00747716        0.00071659
       -4.65721684        1.19657698        0.09566094        1.02569372        0.06672654        0.00774718        0.00074860
       -4.64720683        1.24357069        0.09985566        1.06580044        0.06913559        0.00799768        0.00078132
       -4.63719682        1.28876166        0.10388416        1.10446346        0.07137241        0.00822710        0.00081454
       -4.62718681        1.33174447        0.10771241        1.14133089        0.07341892        0.00843421        0.00084804
       -4.61717680        1.37211653        0.11130612        1.17605204        0.07525870        0.00861808        0.00088158
       -4.60716679        1.40948262        0.11463120        1.20828126        0.07687711        0.00877813        0.00091490
       -4.59715678        1.44346036        0.11765439        1.23768280        0.07826139        0.00891404        0.00094774
       -4.58714677        1.47368685        0.12034396        1.26393654        0.07940081        0.00902574        0.00097980
       -4.57713676        1.49982618        0.12267052        1.28674463        0.08028682        0.00911342        0.00101079
       -4.56712675        1.52157760        0.12460787        1.30583870        0.08091319        0.00917744        0.00104041
       -4.55711674        1.53868388        0.12613376        1.32098725        0.08127618        0.00921835        0.00106834
       -4.54710673        1.55093922        0.12723067        1.33200279        0.08137465        0.00923684        0.00109427
       -4.53709672        1.55819650        0.12788639        1.33874829        0.08121019        0.00923371        0.00111792
       -4.52708671        1.56037293        0.12809447        1.34114247        0.08078714        0.00920985        0.00113901
       -4.51707670        1.55745409        0.12785447        1.33916353        0.08011259        0.00916621        0.00115728
       -4.50706669        1.54949579        0.12717200        1.33285108        0.07919637        0.00910381        0.00117253
       -4.49705668        1.53662373        0.12605855        1.32230611        0.07805082        0.00902366        0.00118459
       -4.48704667        1.51903099        0.12453117        1.30768902        0.07669066        0.00892682        0.00119332
       -4.47703666        1.49697348        0.12261194        1.28921584        0.07513270        0.00881435        0.00119866
       -4.46702665        1.47076370        0.12032741        1.26715292        0.07339551        0.00868729        0.00120058
       -4.45701664        1.44076318        0.11770789        1.24181035        0.07149913        0.00854669        0.00119911
       -4.44700663        1.40737395        0.11478674        1.21353460        0.06946465        0.00839361        0.00119435
       -4.43699662        1.37102969        0.11159968        1.18270058        0.06731388        0.00822912        0.00118643
       -4.42698661        1.33218652        0.10818413        1.14970360        0.06506899        0.00805427        0.00117553
       -4.41697660        1.29131420        0.10457851        1.11495144        0.06275222        0.00787017        0.00116186
       -4.40696659        1.24888751        0.10082173        1.07885665        0.06038552        0.00767794        0.00114567
       -4.39695658        1.20537826        0.09695256        1.04182937        0.05799031        0.00747878        0.00112725
       -4.38694657        1.16124774        0.09300912        1.00427058        0.05558725        0.00727391        0.00110688
       -4.37693656        1.11693978        0.08902841        0.96656583        0.05319603        0.00706461        0.00108489
       -4.36692655        1.07287437        0.08504577        0.92907962        0.05083516        0.00685222        0.00106160
       -4.35691654        1.02944186        0.08109439        0.89215018        0.04852183        0.00663814        0.00103732
       -4.34690653        0.98699776        0.07720485        0.85608501        0.04627172        0.00642379        0.00101239
       -4.33689652        0.94585836        0.07340465        0.82115706        0.04409891        0.00621061        0.00098712
       -4.32688651        0.90629723        0.06971780        0.78760182        0.04201571        0.00600005        0.00096184
       -4.31687650        0.86854290        0.06616450        0.75561540        0.04003263        0.00579353        0.00093684
       -4.30686649        0.83277786        0.06276087        0.72535391        0.03815823        0.00559242        0.00091243
       -4.29685648        0.79913912        0.05951887        0.69693416        0.03639918        0.00539802        0.00088889
       -4.28684647        0.76772044        0.05644629        0.67043586        0.03476025        0.00521154        0.00086650
       -4.27683646        0.73857638        0.05354699        0.64590544        0.03324435        0.00503408        0.00084552
       -4.26682645        0.71172794        0.05082116        0.62336121        0.03185273        0.00486663        0.00082620
       -4.25681644        0.68716977        0.04826587        0.60279989        0.03058515        0.00471004        0.00080881
       -4.24680643        0.66487861        0.04587563        0.58420423        0.02944013        0.00456506        0.00079358
       -4.23679642        0.64482246        0.04364307        0.56755109        0.02841525        0.00443231        0.00078074
       -4.22678641        0.62697004        0.04155970        0.55281997        0.02750750        0.00431233        0.00077053
       -4.21677640        0.61130010        0.03961662        0.54000103        0.02671367        0.00420560        0.00076318
       -4.20676639        0.59780980        0.03780519        0.52910250        0.02603067        0.00411251        0.00075892
       -4.19675638        0.58652181        0.03611766        0.52015677        0.02545593        0.00403348        0.00075798
       -4.18674637        0.57748967        0.03454762        0.51322489        0.02498769        0.00396890        0.00076057
       -4.17673636        0.57080093        0.03309035        0.50839913        0.02462529        0.00391923        0.00076694
       -4.16672635        0.56657799        0.03174302        0.50580332        0.02436938        0.00388497        0.00077729
       -4.15671634        0.56497637        0.03050468        0.50559108        0.02422202        0.00386674        0.00079184
       -4.14670633        0.56618059        0.02937614        0.50794163        0.02418674        0.00386526        0.00081081
       -4.13669632        0.57039761        0.02835969        0.51305371        0.02426845        0.00388138        0.00083438
       -4.12668631        0.57784814        0.02745870        0.52113739        0.02447325        0.00391607        0.00086272
       -4.11667630        0.58875620        0.02667717        0.53240436        0.02480823        0.00397045        0.00089600
       -4.10666629        0.60333716        0.02601913        0.54705697        0.02528103        0.00404570        0.00093432
       -4.09665628        0.62178477        0.02548813        0.56527626        0.02589946        0.00414314        0.00097778
       -4.08664627        0.64425769        0.02508665        0.58720960        0.02667096        0.00426407        0.00102641
       -4.07663626        0.67086583        0.02481559        0.61295823        0.02760204        0.00440978        0.00108020
       -4.06662625        0.70165734        0.02467379        0.64256537        0.02869768        0.00458146        0.00113904
       -4.05661624        0.73660641        0.02465766        0.67600505        0.02996079        0.00478011        0.00120280
       -4.04660623        0.77560278        0.02476093        0.71317256        0.03139159        0.00500646        0.00127124
       -4.03659622        0.81844322        0.02497450        0.75387675        0.03298710        0.00526086        0.00134401
       -4.02658621        0.86482576        0.02528640        0.79783471        0.03474077        0.00554318        0.00142070
       -4.01657620        0.91434695        0.02568197        0.84466936        0.03664211        0.00585272        0.00150078
       -4.00656619        0.96650271        0.02614408        0.89391033        0.03867654        0.00618814        0.00158364
       -3.99655618        1.02069302        0.02665352        0.94499825        0.04082536        0.00654736        0.00166853
       -3.98654617        1.07623056        0.02718953        0.99729292        0.04306590        0.00692756        0.00175464
       -3.97653616        1.13235344        0.02773034        1.05008498        0.04537186        0.00732518        0.00184108
       -3.96652615        1.18824165        0.02825388        1.10261127        0.04771377        0.00773588        0.00192685
       -3.95651614        1.24303683        0.02873844        1.15407312        0.05005967        0.00815465        0.00201093
       -3.94650613        1.29586477        0.02916338        1.20365730        0.05237591        0.00857592        0.00209226
       -3.93649612        1.34585969        0.02950978        1.25055856        0.05462797        0.00899362        0.00216975
       -3.92648611        1.39218936        0.02976109        1.29400301        0.05678150        0.00940143        0.00224233
       -3.91647610        1.43407986        0.02990358        1.33327118        0.05880323        0.00979290        0.00230897
       -3.90646609        1.47083887        0.02992680        1.36771974        0.06066195        0.01016166        0.00236871
       -3.89645608        1.50187628        0.02982378        1.39680078        0.06232939        0.01050165        0.00242067
       -3.88644607        1.52672124        0.02959121        1.42007765        0.06378098        0.01080732        0.00246408
       -3.87643606        1.54503468        0.02922935        1.43723672        0.06499648        0.01107380        0.00249832
       -3.86642605        1.55661676        0.02874190        1.44809439        0.06596050        0.01129706        0.00252291
       -3.85641604        1.56140910        0.02813568        1.45259910        0.06666271        0.01147409        0.00253753
       -3.84640603        1.55949163        0.02742023        1.45082841        0.06709803        0.01160294        0.00254203
       -3.83639602        1.55107447        0.02660734        1.44298143        0.06726647        0.01168278        0.00253645
       -3.82638601        1.53648559        0.02571049        1.42936717        0.06717300        0.01171395        0.00252099
       -3.81637600        1.51615476        0.02474432        1.41038951        0.06682707        0.01169785        0.00249601
       -3.80636599        1.49059512        0.02372408        1.38652986        0.06624224        0.01163691        0.00246204
       -3.79635598        1.46038311        0.02266511        1.35832834        0.06543551        0.01153442        0.00241973
       -3.78634597        1.42613804        0.02158239        1.32636456        0.06442678        0.01139445        0.00236987
       -3.77633596        1.38850206        0.02049014        1.29123884        0.06323818        0.01122159        0.00231331
       -3.76632595        1.34812154        0.01940155        1.25355470        0.06189345        0.01102083        0.00225100
       -3.75631594        1.30563027        0.01832852        1.21390320        0.06041729        0.01079734        0.00218393
       -3.74630593        1.26163526        0.01728153        1.17284956        0.05883478        0.01055630        0.00211310
       -3.73629592        1.21670502        0.01626957        1.13092235        0.05717088        0.01030270        0.00203951
       -3.72628591        1.17136069        0.01530016        1.08860527        0.05544989        0.01004122        0.00196414
       -3.71627590        1.12606981        0.01437937        1.04633142        0.05369502        0.00977611        0.00188790
       -3.70626589        1.08124261        0.01351190        1.00447999        0.05192805        0.00951104        0.00181163
       -3.69625588        1.03723045        0.01270124        0.96337506        0.05016896        0.00924909        0.00173611
       -3.68624587        0.99432635        0.01194974        0.92328621        0.04843572        0.00899269        0.00166198
       -3.67623586        0.95276707        0.01125882        0.88443068        0.04674411        0.00874364        0.00158982
       -3.66622585        0.91273658        0.01062902        0.84697684        0.04510754        0.00850312        0.00152005
       -3.65621584        0.87437070        0.01006018        0.81104862        0.04353711        0.00827175        0.00145303
       -3.64620583        0.83776254        0.00955153        0.77673077        0.04204157        0.00804968        0.00138899
       -3.63619582        0.80296855        0.00910178        0.74407460        0.04062746        0.00783664        0.00132807
       -3.62618581        0.77001506        0.00870924        0.71310408        0.03929927        0.00763212        0.00127034
       -3.61617580        0.73890486        0.00837183        0.68382212        0.03805973        0.00743539        0.00121579
       -3.60616579        0.70962382        0.00808718        0.65621658        0.03691002        0.00724568        0.00116436
       -3.59615578        0.68214711        0.00785263        0.63026614        0.03585014        0.00706222        0.00111597
       -3.58614577        0.65644486        0.00766529        0.60594548        0.03487923        0.00688436        0.00107051
       -3.57613576        0.63248707        0.00752204        0.58322970        0.03399585        0.00671162        0.00102785
       -3.56612575        0.61024742        0.00741954        0.56209791        0.03319832        0.00654375        0.00098790
       -3.55611574        0.58970599        0.00735424        0.54253553        0.03248491        0.00638074        0.00095056
       -3.54610573        0.57085061        0.00732238        0.52453557        0.03185403        0.00622286        0.00091577
       -3.53609572        0.55367693        0.00732001        0.50809853        0.03130432        0.00607060        0.00088348
       -3.52608571        0.53818722        0.00734298        0.49323121        0.03083469        0.00592467        0.00085367
       -3.51607570        0.52438788        0.00738697        0.47994434        0.03044425        0.00578597        0.00082635
       -3.50606569        0.51228605        0.00744750        0.46824932        0.03013218        0.00565550        0.00080154
       -3.49605568        0.50188539        0.00752003        0.45815421        0.02989757        0.00553430        0.00077929
       -3.48604567        0.49318136        0.00759993        0.44965923        0.02973917        0.00542340        0.00075962
       -3.47603566        0.48615636        0.00768261        0.44275214        0.02965523        0.00532379        0.00074259
       -3.46602565        0.48077496        0.00776356        0.43740372        0.02964318        0.00523628        0.00072822
       -3.45601564        0.47697961        0.00783844        0.43356362        0.02969949        0.00516153        0.00071652
       -3.44600563        0.47468715        0.00790318        0.43115699        0.02981949        0.00509998        0.00070750
       -3.43599562        0.47378628        0.00795403        0.43008203        0.02999728        0.00505182        0.00070112
       -3.42598561        0.47413641        0.00798768        0.43020878        0.03022565        0.00501699        0.00069732
       -3.41597560        0.47556781        0.00800126        0.43137921        0.03049618        0.00499514        0.00069602
       -3.40596559        0.47788345        0.00799248        0.43340885        0.03079932        0.00498569        0.00069711
       -3.39595558        0.48086238        0.00795960        0.43608990        0.03112459        0.00498782        0.00070046
       -3.38594557        0.48426458        0.00790145        0.43919591        0.03146083        0.00500049        0.00070591
       -3.37593556        0.48783742        0.00781747        0.44248772        0.03179647        0.00502248        0.00071328
       -3.36592555        0.49132310        0.00770769        0.44572069        0.03211993        0.00505242        0.00072237
       -3.35591554        0.49446709        0.00757263        0.44865272        0.03241990        0.00508886        0.00073298
       -3.34590553        0.49702711        0.00741338        0.45105288        0.03268572        0.00513024        0.00074488
       -3.33589552        0.49878203        0.00723144        0.45271000        0.03290772        0.00517504        0.00075783
       -3.32588551        0.49954048        0.00702872        0.45344101        0.03307745        0.00522172        0.00077159
       -3.31587550        0.49914848        0.00680750        0.45309831        0.03318797        0.00526879        0.00078590
       -3.30586549        0.49749563        0.00657033        0.45157592        0.03323398        0.00531489        0.00080050
       -3.29585548        0.49451963        0.00632000        0.44881381        0.03321195        0.00535874        0.00081513
       -3.28584547        0.49020861        0.00605950        0.44480029        0.03312012        0.00539921        0.00082951
       -3.27583546        0.48460125        0.00579193        0.43957215        0.03295847        0.00543533        0.00084337
       -3.26582545        0.47778447        0.00552049        0.43321258        0.03272865        0.00546630        0.00085645
       -3.25581544        0.46988903        0.00524841        0.42584685        0.03243378        0.00549151        0.00086849
       -3.24580543        0.46108313        0.00497893        0.41763617        0.03207830        0.00551050        0.00087924
       -3.23579542        0.45156442        0.00471519        0.40876997        0.03166778        0.00552300        0.00088847
       -3.22578541        0.44155101        0.00446027        0.39945716        0.03120867        0.00552893        0.00089599
       -3.21577540        0.43127197        0.00421706        0.38991683        0.03070810        0.00552836        0.00090163
       -3.20576539        0.42095798        0.00398828        0.38036917        0.03017373        0.00552153        0.00090527
       -3.19575538        0.41083260        0.00377641        0.37102692        0.02961360        0.00550883        0.00090684
       -3.18574537        0.40110478        0.00358366        0.36208805        0.02903596        0.00549080        0.00090632
       -3.17573536        0.39196301        0.00341193        0.35372996        0.02844925        0.00546813        0.00090374
       -3.16572535        0.38357125        0.00326283        0.34610553        0.02786204        0.00544163        0.00089923
