#  aims_uuid : 34ED089B-8E9C-4626-A65E-7A0C34F4742C                                
#  angular momentum projected density of states for species Mo as calculated by FHI-aims 
# The energy reference for this output is the chemical potential, mu =      -5.302743 eV
#      Energy (eV)         total dos     l= 0              l= 1              l= 2              l= 3              l= 4
       -4.69725688       24.57743400        1.04127724        3.45280872       19.77423038        0.26845734        0.04066032
       -4.68724687       25.67377846        1.16788191        3.67188929       20.50910769        0.28191688        0.04298269
       -4.67723686       26.74028879        1.30381235        3.89326924       21.20209582        0.29583138        0.04528000
       -4.66722685       27.76818919        1.44861187        4.11500166       21.84693885        0.31010031        0.04753650
       -4.65721684       28.74920118        1.60160478        4.33502245       22.43822069        0.32461684        0.04973642
       -4.64720683       29.67561206        1.76188704        4.55117419       22.97141772        0.33926910        0.05186401
       -4.63719682       30.54031907        1.92832388        4.76123297       23.44291742        0.35394111        0.05390369
       -4.62718681       31.33685597        2.09955533        4.96293888       23.85000806        0.36851362        0.05584007
       -4.61717680       32.05940962        2.27401031        5.15403017       24.19084608        0.38286489        0.05765818
       -4.60716679       32.70283381        2.44992963        5.33228140       24.46440776        0.39687143        0.05934359
       -4.59715678       33.26266646        2.62539765        5.49554507       24.67043207        0.41040901        0.06088266
       -4.58714677       33.73515439        2.79838189        5.64179603       24.80935988        0.42335382        0.06226278
       -4.57713676       34.11728721        2.96677937        5.76917728       24.88227399        0.43558397        0.06347261
       -4.56712675       34.40683944        3.12846799        5.87604569       24.89084211        0.44698125        0.06450239
       -4.55711674       34.60241740        3.28136081        5.96101541       24.83726370        0.45743326        0.06534422
       -4.54710673       34.70350574        3.42346102        6.02299684       24.72421998        0.46683565        0.06599224
       -4.53709672       34.71050721        3.55291509        6.06122911       24.55482557        0.47509457        0.06644287
       -4.52708671       34.62476921        3.66806173        6.07530396       24.33257963        0.48212897        0.06669492
       -4.51707670       34.44859131        3.76747449        6.06517959       24.06131469        0.48787285        0.06674968
       -4.50706669       34.18520950        3.84999623        6.03118342       23.74514185        0.49227713        0.06661087
       -4.49705668       33.83875496        3.91476410        5.97400341       23.38839174        0.49531113        0.06628457
       -4.48704667       33.41418731        3.96122417        5.89466843       22.99555212        0.49696354        0.06577904
       -4.47703666       32.91720494        3.98913569        5.79451844       22.57120349        0.49724279        0.06510454
       -4.46702665       32.35413653        3.99856524        5.67516625       22.11995518        0.49617686        0.06427300
       -4.45701664       31.73181955        3.98987163        5.53845276       21.64638480        0.49381256        0.06329780
       -4.44700663       31.05747206        3.96368309        5.38639785       21.15498355        0.49021418        0.06219340
       -4.43699662       30.33856409        3.92086802        5.22114926       20.65010993        0.48546182        0.06097507
       -4.42698661       29.58269403        3.86250150        5.04493144       20.13595323        0.47964926        0.05965860
       -4.41697660       28.79747446        3.78982902        4.85999653       19.61650725        0.47288161        0.05826005
       -4.40696659       27.99042994        3.70422931        4.66857865       19.09555378        0.46527272        0.05679548
       -4.39695658       27.16890807        3.60717778        4.47285279       18.57665417        0.45694250        0.05528083
       -4.38694657       26.34000348        3.50021173        4.27489897       18.06314686        0.44801423        0.05373170
       -4.37693656       25.51049369        3.38489826        4.07667194       17.55814836        0.43861189        0.05216324
       -4.36692655       24.68678496        3.26280552        3.87997650       17.06455529        0.42885759        0.05059006
       -4.35691654       23.87486672        3.13547747        3.68644829       16.58504563        0.41886918        0.04902614
       -4.34690653       23.08027312        3.00441231        3.49753972       16.12207820        0.40875813        0.04748475
       -4.33689652       22.30805164        2.87104423        3.31451099       15.67789035        0.39862765        0.04597842
       -4.32688651       21.56273906        2.73672833        3.13842572       15.25449486        0.38857128        0.04451887
       -4.31687650       20.84834633        2.60272823        2.97015120       14.85367803        0.37867184        0.04311702
       -4.30686649       20.16835435        2.47020603        2.81036319       14.47700125        0.36900088        0.04178300
       -4.29685648       19.52572286        2.34021419        2.65955504       14.12580886        0.35961865        0.04052611
       -4.28684647       18.92291438        2.21368917        2.51805124       13.80124443        0.35057459        0.03935495
       -4.27683646       18.36193455        2.09144652        2.38602503       13.50427729        0.34190828        0.03827743
       -4.26682645       17.84438897        1.97417737        2.26351988       13.23573992        0.33365084        0.03730097
       -4.25681644       17.37155551        1.86244632        2.15047425       12.99637574        0.32582664        0.03643256
       -4.24680643       16.94446954        1.75669079        2.04674891       12.78689555        0.31845525        0.03567904
       -4.23679642       16.56401832        1.65722190        1.95215587       12.60803983        0.31155347        0.03504725
       -4.22678641       16.23103984        1.56422711        1.86648782       12.46064331        0.30513732        0.03454428
       -4.21677640       15.94642062        1.47777473        1.78954683       12.34569759        0.29922379        0.03417769
       -4.20676639       15.71118699        1.39782045        1.72117094       12.26440751        0.29383231        0.03395579
       -4.19675638       15.52658449        1.32421594        1.66125757       12.21823732        0.28898588        0.03388779
       -4.18674637       15.39414050        1.25671960        1.60978225       12.20894299        0.28471163        0.03398404
       -4.17673636       15.31570629        1.19500925        1.56681213       12.23858780        0.28104100        0.03425612
       -4.16672635       15.29347543        1.13869667        1.53251305       12.30953939        0.27800939        0.03471693
       -4.15671634       15.32997668        1.08734353        1.50715016       12.42444685        0.27565545        0.03538069
       -4.14670633       15.42804019        1.04047842        1.49108153       12.58619743        0.27401997        0.03626284
       -4.13669632       15.59073674        0.99761416        1.48474519       12.79785309        0.27314447        0.03737984
       -4.12668631       15.82129054        0.95826505        1.48863972       13.06256719        0.27306966        0.03874891
       -4.11667630       16.12296631        0.92196315        1.50329927       13.38348261        0.27383370        0.04038758
       -4.10666629       16.49893229        0.88827289        1.52926360       13.76361222        0.27547039        0.04231319
       -4.09665628       16.95210132        0.85680357        1.56704444       14.20570371        0.27800731        0.04454228
       -4.08664627       17.48495264        0.82721897        1.61708904       14.71209082        0.28146399        0.04708981
       -4.07663626       18.09933855        0.79924378        1.67974232       15.28453406        0.28584998        0.04996841
       -4.06662625       18.79628082        0.77266656        1.75520897       15.92405480        0.29116303        0.05318746
       -4.05661624       19.57576328        0.74733931        1.84351685       16.63076767        0.29738725        0.05675220
       -4.04660623       20.43652866        0.72317362        1.94448316       17.40371767        0.30449139        0.06066283
       -4.03659622       21.37588884        0.70013396        2.05768493       18.24072909        0.31242722        0.06491365
       -4.02658621       22.38955897        0.67822848        2.18243523       19.13827479        0.32112821        0.06949226
       -4.01657620       23.47152681        0.65749805        2.31776662       20.09137459        0.33050858        0.07437896
       -4.00656619       24.61396812        0.63800427        2.46242310       21.09353172        0.34046278        0.07954626
       -3.99655618       25.80721895        0.61981712        2.61486171       22.13671576        0.35086569        0.08495866
       -3.98654617       27.03981330        0.60300314        2.77326482       23.21139907        0.36157362        0.09057264
       -3.97653616       28.29859270        0.58761457        2.93556341       24.30665161        0.37242611        0.09633700
       -3.96652615       29.56889070        0.57368027        3.09947159       25.41029668        0.38324875        0.10219343
       -3.95651614       30.83479136        0.56119854        3.26253196       26.50912652        0.39385692        0.10807741
       -3.94650613       32.07945671        0.55013244        3.42217079       27.58917359        0.40406047        0.11391943
       -3.93649612       33.28551386        0.54040734        3.57576139       28.63602974        0.41366899        0.11964640
       -3.92648611       34.43548824        0.53191105        3.72069375       29.63520235        0.42249780        0.12518330
       -3.91647610       35.51226656        0.52449610        3.85444767       30.57249379        0.43037398        0.13045503
       -3.90646609       36.49957009        0.51798407        3.97466645       31.43438876        0.43714252        0.13538830
       -3.89645608       37.38241799        0.51217157        4.07922802       32.20843294        0.44267193        0.13991354
       -3.88644607       38.14756031        0.50683756        4.16631008       32.88358669        0.44685916        0.14396682
       -3.87643606       38.78386130        0.50175150        4.23444642       33.45053832        0.44963353        0.14749154
       -3.86642605       39.28261640        0.49668204        4.28257133       33.90196369        0.45095933        0.15044000
       -3.85641604       39.63778940        0.49140582        4.31005037       34.23272148        0.45083705        0.15277468
       -3.84640603       39.84616062        0.48571586        4.31669553       34.43997698        0.44930304        0.15446922
       -3.83639602       39.90738114        0.47942948        4.30276451       34.52325040        0.44642776        0.15550900
       -3.82638601       39.82393301        0.47239509        4.26894398       34.48438987        0.44231262        0.15589145
       -3.81637600       39.60099941        0.46449787        4.21631800       34.32747198        0.43708563        0.15562593
       -3.80636599       39.24625263        0.45566392        4.14632327       34.05863606        0.43089614        0.15473324
       -3.79635598       38.76957085        0.44586283        4.06069354       33.68586075        0.42390889        0.15324483
       -3.78634597       38.18269691        0.43510841        3.96139623       33.21869270        0.41629785        0.15120172
       -3.77633596       37.49885383        0.42345770        3.85056405       32.66793906        0.40823991        0.14865311
       -3.76632595       36.73233242        0.41100815        3.73042521       32.04533524        0.39990894        0.14565488
       -3.75631594       35.89806636        0.39789315        3.60323484       31.36320010        0.39147034        0.14226792
       -3.74630593       35.01120966        0.38427606        3.47121085       30.63409007        0.38307634        0.13855633
       -3.73629592       34.08673032        0.37034302        3.33647621       29.87046322        0.37486217        0.13458570
       -3.72628591       33.13903283        0.35629488        3.20100977       29.08436363        0.36694318        0.13042137
       -3.71627590       32.18162066        0.34233859        3.06660675       28.28713543        0.35941303        0.12612686
       -3.70626589       31.22680813        0.32867853        2.93484975       27.48917472        0.35234278        0.12176235
       -3.69625588       30.28548948        0.31550822        2.80709024       26.69972650        0.34578106        0.11738346
       -3.68624587       29.36697058        0.30300265        2.68444049       25.92673226        0.33975497        0.11304021
       -3.67623586       28.47886689        0.29131188        2.56777487       25.17673203        0.33427186        0.10877625
       -3.66622585       27.62706857        0.28055595        2.45773966       24.45482296        0.32932165        0.10462835
       -3.65621584       26.81577142        0.27082143        2.35476982       23.76467429        0.32487970        0.10062618
       -3.64620583       26.04756933        0.26215968        2.25911131       23.10859595        0.32091004        0.09679235
       -3.63619582       25.32360159        0.25458687        2.17084722       22.48765610        0.31736870        0.09314269
       -3.62618581       24.64374575        0.24808563        2.08992610       21.90184003        0.31420722        0.08968677
       -3.61617580       24.00684492        0.24260806        2.01619095       21.35024139        0.31137592        0.08642859
       -3.60616579       23.41095655        0.23808010        1.94940738       20.83127467        0.30882703        0.08336738
       -3.59615578       22.85360925        0.23440659        1.88928962       20.34289716        0.30651736        0.08049853
       -3.58614577       22.33205390        0.23147701        1.83552346       19.88282831        0.30441059        0.07781454
       -3.57613576       21.84349641        0.22917135        1.78778528       19.44875494        0.30247892        0.07530591
       -3.56612575       21.38530087        0.22736593        1.74575664       19.03851208        0.30070413        0.07296209
       -3.55611574       20.95515433        0.22593871        1.70913436       18.65023108        0.29907797        0.07077220
       -3.54610573       20.55118717        0.22477407        1.67763606       18.28244928        0.29760202        0.06872575
       -3.53609572       20.17204610        0.22376667        1.65100157       17.93417799        0.29628676        0.06681312
       -3.52608571       19.81691989        0.22282441        1.62899073       17.60492849        0.29515026        0.06502600
       -3.51607570       19.48552089        0.22187039        1.61137826       17.29469833        0.29421632        0.06335759
       -3.50606569       19.17802782        0.22084384        1.59794660       17.00392239        0.29351227        0.06180271
       -3.49605568       18.89499697        0.21970014        1.58847749       16.73339503        0.29306649        0.06035782
       -3.48604567       18.63725051        0.21840996        1.58274319       16.48417065        0.29290589        0.05902081
       -3.47603566       18.40575085        0.21695770        1.58049816       16.25745084        0.29305325        0.05779089
       -3.46602565       18.20146994        0.21533935        1.58147172       16.05446574        0.29352487        0.05666826
       -3.45601564       18.02526189        0.21356001        1.58536247       15.87635735        0.29432827        0.05565379
       -3.44600563       17.87774605        0.21163117        1.59183459       15.72407112        0.29546042        0.05474874
       -3.43599562       17.75920631        0.20956792        1.60051646       15.59826120        0.29690633        0.05395441
       -3.42598561       17.66951117        0.20738641        1.61100144       15.49921334        0.29863821        0.05327178
       -3.41597560       17.60805702        0.20510142        1.62285091       15.42678816        0.30061529        0.05270125
       -3.40596559       17.57373614        0.20272447        1.63559916       15.38038588        0.30278427        0.05224237
       -3.39595558       17.56492909        0.20026236        1.64875992       15.35893283        0.30508038        0.05189361
       -3.38594557       17.57952020        0.19771620        1.66183404       15.36088853        0.30742923        0.05165220
       -3.37593556       17.61493368        0.19508110        1.67431802       15.38427150        0.30974908        0.05151398
       -3.36592555       17.66818736        0.19234634        1.68571283       15.42670107        0.31195376        0.05147336
       -3.35591554       17.73596010        0.18949606        1.69553268       15.48545218        0.31395586        0.05152331
       -3.34590553       17.81466913        0.18651039        1.70331352       15.55751967        0.31567018        0.05165537
       -3.33589552       17.90055328        0.18336691        1.70862086       15.63968858        0.31701715        0.05185979
       -3.32588551       17.98975826        0.18004236        1.71105687       15.72860722        0.31792619        0.05212562
       -3.31587550       18.07842088        0.17651440        1.71026676       15.82086009        0.31833868        0.05244095
       -3.30586549       18.16274949        0.17276340        1.70594435       15.91303824        0.31821038        0.05279312
       -3.29585548       18.23909880        0.16877409        1.69783703       16.00180543        0.31751330        0.05316895
       -3.28584547       18.30403825        0.16453700        1.68575026       16.08395918        0.31623677        0.05355504
       -3.27583546       18.35441351        0.16004956        1.66955173       16.15648640        0.31438775        0.05393808
       -3.26582545       18.38740189        0.15531687        1.64917523       16.21661435        0.31199031        0.05430513
       -3.25581544       18.40056253        0.15035213        1.62462448       16.26185749        0.30908448        0.05464395
       -3.24580543       18.39188275        0.14517657        1.59597670       16.29006179        0.30572440        0.05494329
       -3.23579542       18.35982186        0.13981918        1.56338595       16.29944758        0.30197598        0.05519316
       -3.22578541       18.30335325        0.13431598        1.52708596       16.28865183        0.29791436        0.05538513
       -3.21577540       18.22200526        0.12870914        1.48739219       16.25677031        0.29362105        0.05551256
       -3.20576539       18.11590015        0.12304588        1.44470289       16.20339927        0.28918129        0.05557082
       -3.19575538       17.98579012        0.11737729        1.39949860       16.12867528        0.28468151        0.05555744
       -3.18574537       17.83308771        0.11175714        1.35234007       16.03331116        0.28020711        0.05547225
       -3.17573536       17.65988782        0.10624072        1.30386403       15.91862492        0.27584072        0.05531744
       -3.16572535       17.46897747        0.10088380        1.25477698       15.78655819        0.27166090        0.05509759
