#  aims_uuid : F128D8B5-E5F3-407F-ADF6-DC6AC86BB935                                
#  angular momentum projected density of states for species Mo as calculated by FHI-aims 
# The energy reference for this output is the chemical potential, mu =      -5.106688 eV
#      Energy (eV)         total dos     l= 0              l= 1              l= 2              l= 3              l= 4
       -4.89331207        1.08645613        0.03791379        0.13609103        0.90013649        0.01079140        0.00152341
       -4.88330206        1.13096631        0.04316874        0.14553271        0.92928822        0.01135443        0.00162221
       -4.87329205        1.17318949        0.04888421        0.15508456        0.95555997        0.01193962        0.00172114
       -4.86328204        1.21271813        0.05503734        0.16465290        0.97866445        0.01254385        0.00181958
       -4.85327203        1.24918901        0.06159085        0.17414036        0.99837721        0.01316367        0.00191692
       -4.84326202        1.28228694        0.06849236        0.18344751        1.01453930        0.01379527        0.00201251
       -4.83325201        1.31174677        0.07567436        0.19247459        1.02705756        0.01443459        0.00210568
       -4.82324200        1.33735395        0.08305491        0.20112327        1.03590269        0.01507732        0.00219576
       -4.81323199        1.35894388        0.09053906        0.20929839        1.04110538        0.01571898        0.00228207
       -4.80322198        1.37640049        0.09802102        0.21690963        1.04275102        0.01635487        0.00236394
       -4.79321197        1.38965419        0.10538709        0.22387312        1.04097311        0.01698019        0.00244068
       -4.78320196        1.39867965        0.11251910        0.23011288        1.03594605        0.01758997        0.00251165
       -4.77319195        1.40349338        0.11929834        0.23556208        1.02787755        0.01817918        0.00257623
       -4.76318194        1.40415143        0.12560972        0.24016413        1.01700103        0.01874273        0.00263382
       -4.75317193        1.40074718        0.13134596        0.24387340        1.00356842        0.01927551        0.00268389
       -4.74316192        1.39340916        0.13641155        0.24665579        0.98784337        0.01977246        0.00272600
       -4.73315191        1.38229886        0.14072625        0.24848893        0.97009529        0.02022865        0.00275974
       -4.72314190        1.36760843        0.14422805        0.24936218        0.95059405        0.02063935        0.00278481
       -4.71313189        1.34955821        0.14687515        0.24927634        0.92960560        0.02100009        0.00280102
       -4.70312188        1.32839392        0.14864723        0.24824322        0.90738839        0.02130682        0.00280825
       -4.69311187        1.30438350        0.14954556        0.24628498        0.88419052        0.02155595        0.00280649
       -4.68310186        1.27781371        0.14959236        0.24343342        0.86024765        0.02174445        0.00279583
       -4.67309185        1.24898633        0.14882911        0.23972921        0.83578155        0.02187000        0.00277646
       -4.66308184        1.21821423        0.14731422        0.23522109        0.81099923        0.02193101        0.00274868
       -4.65307183        1.18581734        0.14512018        0.22996506        0.78609253        0.02192671        0.00271287
       -4.64306182        1.15211868        0.14233016        0.22402363        0.76123817        0.02185723        0.00266949
       -4.63305181        1.11744050        0.13903465        0.21746504        0.73659811        0.02172361        0.00261909
       -4.62304180        1.08210074        0.13532793        0.21036254        0.71232018        0.02152779        0.00256229
       -4.61303179        1.04640977        0.13130486        0.20279356        0.68853892        0.02127265        0.00249978
       -4.60302178        1.01066747        0.12705790        0.19483893        0.66537646        0.02096188        0.00243230
       -4.59301177        0.97516065        0.12267467        0.18658191        0.64294346        0.02060000        0.00236062
       -4.58300176        0.94016077        0.11823582        0.17810721        0.62134000        0.02019218        0.00228556
       -4.57299175        0.90592189        0.11381359        0.16949986        0.60065632        0.01974414        0.00220797
       -4.56298174        0.87267876        0.10947072        0.16084396        0.58097337        0.01926204        0.00212867
       -4.55297173        0.84064517        0.10525986        0.15222134        0.56236320        0.01875225        0.00204851
       -4.54296172        0.81001233        0.10122337        0.14371024        0.54488914        0.01822129        0.00196830
       -4.53295171        0.78094758        0.09739343        0.13538398        0.52860580        0.01767556        0.00188881
       -4.52294170        0.75359320        0.09379242        0.12730962        0.51355909        0.01712129        0.00181079
       -4.51293169        0.72806580        0.09043350        0.11954689        0.49978614        0.01656435        0.00173491
       -4.50292168        0.70445613        0.08732138        0.11214729        0.48731548        0.01601019        0.00166180
       -4.49291167        0.68282963        0.08445309        0.10515336        0.47616742        0.01546375        0.00159201
       -4.48290166        0.66322773        0.08181899        0.09859840        0.46635486        0.01492943        0.00152605
       -4.47289165        0.64567017        0.07940371        0.09250643        0.45788459        0.01441107        0.00146437
       -4.46288164        0.63015820        0.07718719        0.08689248        0.45075914        0.01391202        0.00140737
       -4.45287163        0.61667875        0.07514571        0.08176329        0.44497916        0.01343516        0.00135543
       -4.44286162        0.60520940        0.07325298        0.07711821        0.44054632        0.01298296        0.00130893
       -4.43285161        0.59572399        0.07148115        0.07295039        0.43746664        0.01255759        0.00126822
       -4.42284160        0.58819865        0.06980184        0.06924817        0.43575394        0.01216099        0.00123372
       -4.41283159        0.58261791        0.06818712        0.06599655        0.43543345        0.01179494        0.00120585
       -4.40282158        0.57898046        0.06661037        0.06317873        0.43654509        0.01146112        0.00118514
       -4.39281157        0.57730441        0.06504712        0.06077768        0.43914628        0.01116118        0.00117214
       -4.38280156        0.57763154        0.06347571        0.05877753        0.44331404        0.01089674        0.00116752
       -4.37279155        0.58003024        0.06187785        0.05716487        0.44914611        0.01066941        0.00117200
       -4.36278154        0.58459699        0.06023907        0.05592990        0.45676085        0.01048077        0.00118640
       -4.35277153        0.59145610        0.05854902        0.05506718        0.46629595        0.01033236        0.00121159
       -4.34276152        0.60075759        0.05680153        0.05457631        0.47790561        0.01022562        0.00124852
       -4.33275151        0.61267322        0.05499471        0.05446207        0.49175646        0.01016184        0.00129814
       -4.32274150        0.62739075        0.05313073        0.05473444        0.50802201        0.01014215        0.00136142
       -4.31273149        0.64510637        0.05121560        0.05540811        0.52687594        0.01016743        0.00143928
       -4.30272148        0.66601571        0.04925877        0.05650177        0.54848431        0.01023828        0.00153259
       -4.29271147        0.69030354        0.04727263        0.05803696        0.57299692        0.01035495        0.00164208
       -4.28270146        0.71813244        0.04527195        0.06003673        0.60053806        0.01051736        0.00176835
       -4.27269145        0.74963096        0.04327327        0.06252389        0.63119705        0.01072498        0.00191178
       -4.26268144        0.78488143        0.04129416        0.06551917        0.66501874        0.01097685        0.00207251
       -4.25267143        0.82390809        0.03935254        0.06903918        0.70199448        0.01127149        0.00225039
       -4.24266142        0.86666592        0.03746603        0.07309426        0.74205379        0.01160689        0.00244495
       -4.23265141        0.91303062        0.03565119        0.07768642        0.78505720        0.01198044        0.00265537
       -4.22264140        0.96279038        0.03392303        0.08280741        0.83079061        0.01238890        0.00288044
       -4.21263139        1.01563994        0.03229437        0.08843705        0.87896158        0.01282835        0.00311859
       -4.20262138        1.07117729        0.03077555        0.09454189        0.92919778        0.01329421        0.00336787
       -4.19261137        1.12890371        0.02937402        0.10107436        0.98104817        0.01378119        0.00362597
       -4.18260136        1.18822723        0.02809427        0.10797253        1.03398682        0.01428335        0.00389025
       -4.17259135        1.24847001        0.02693778        0.11516039        1.08741986        0.01479416        0.00415782
       -4.16258134        1.30887952        0.02590309        0.12254887        1.14069542        0.01530659        0.00442555
       -4.15257133        1.36864353        0.02498606        0.13003747        1.19311657        0.01581323        0.00469019
       -4.14256132        1.42690860        0.02418017        0.13751654        1.24395697        0.01630649        0.00494842
       -4.13255131        1.48280162        0.02347691        0.14487006        1.29247894        0.01677876        0.00519695
       -4.12254130        1.53545351        0.02286621        0.15197881        1.33795322        0.01722265        0.00543263
       -4.11253129        1.58402442        0.02233688        0.15872389        1.37967997        0.01763119        0.00565248
       -4.10252128        1.62772920        0.02187711        0.16499029        1.41700988        0.01799807        0.00585385
       -4.09251127        1.66586214        0.02147484        0.17067036        1.44936470        0.01831782        0.00603442
       -4.08250126        1.69781972        0.02111818        0.17566714        1.47625611        0.01858600        0.00619228
       -4.07249125        1.72312026        0.02079573        0.17989714        1.49730207        0.01879932        0.00632599
       -4.06248124        1.74141960        0.02049686        0.18329275        1.51223971        0.01895572        0.00643456
       -4.05247123        1.75252182        0.02021192        0.18580385        1.52093415        0.01905442        0.00651748
       -4.04246122        1.75638456        0.01993239        0.18739888        1.52338269        0.01909587        0.00657472
       -4.03245121        1.75311868        0.01965105        0.18806511        1.51971413        0.01908172        0.00660667
       -4.02244120        1.74298216        0.01936198        0.18780825        1.51018316        0.01901468        0.00661409
       -4.01243119        1.72636883        0.01906064        0.18665146        1.49516024        0.01889838        0.00659810
       -4.00242118        1.70379223        0.01874388        0.18463385        1.47511722        0.01873720        0.00656008
       -3.99241117        1.67586580        0.01840988        0.18180854        1.45060968        0.01853608        0.00650162
       -3.98240116        1.64328016        0.01805814        0.17824049        1.42225673        0.01830034        0.00642447
       -3.97239115        1.60677870        0.01768939        0.17400410        1.39071932        0.01803546        0.00633043
       -3.96238114        1.56713267        0.01730550        0.16918087        1.35667799        0.01774695        0.00622136
       -3.95237113        1.52511680        0.01690931        0.16385700        1.32081126        0.01744013        0.00609910
       -3.94236112        1.48148650        0.01650451        0.15812125        1.28377527        0.01712005        0.00596543
       -3.93235111        1.43695744        0.01609542        0.15206290        1.24618579        0.01679131        0.00582202
       -3.92234110        1.39218823        0.01568676        0.14577000        1.20860297        0.01645802        0.00567048
       -3.91233109        1.34776660        0.01528346        0.13932783        1.17151936        0.01612370        0.00551225
       -3.90232108        1.30419936        0.01489033        0.13281764        1.13535150        0.01579122        0.00534867
       -3.89231107        1.26190632        0.01451188        0.12631562        1.10043505        0.01546281        0.00518096
       -3.88230106        1.22121790        0.01415206        0.11989209        1.06702350        0.01514004        0.00501021
       -3.87229105        1.18237629        0.01381404        0.11361090        1.03529009        0.01482386        0.00483740
       -3.86228104        1.14553990        0.01350008        0.10752903        1.00533271        0.01451465        0.00466343
       -3.85227103        1.11079038        0.01321139        0.10169637        0.97718123        0.01421226        0.00448914
       -3.84226102        1.07814195        0.01294807        0.09615560        0.95080685        0.01391616        0.00431527
       -3.83225101        1.04755231        0.01270914        0.09094235        0.92613275        0.01362553        0.00414255
       -3.82224100        1.01893451        0.01249256        0.08608528        0.90304563        0.01333938        0.00397166
       -3.81223099        0.99216930        0.01229541        0.08160648        0.88140744        0.01305668        0.00380329
       -3.80222098        0.96711713        0.01211402        0.07752181        0.86106666        0.01277655        0.00363809
       -3.79221097        0.94362948        0.01194420        0.07384132        0.84186888        0.01249832        0.00347674
       -3.78220096        0.92155884        0.01178146        0.07056978        0.82366596        0.01222173        0.00331991
       -3.77219095        0.90076708        0.01162123        0.06770710        0.80632351        0.01194697        0.00316826
       -3.76218094        0.88113182        0.01145915        0.06524882        0.78972661        0.01167478        0.00302246
       -3.75217093        0.86255069        0.01129122        0.06318648        0.77378336        0.01140649        0.00288315
       -3.74216092        0.84494355        0.01111404        0.06150797        0.75842660        0.01114401        0.00275093
       -3.73215091        0.82825258        0.01092489        0.06019781        0.74361366        0.01088983        0.00262639
       -3.72214090        0.81244069        0.01072190        0.05923733        0.72932453        0.01064690        0.00251003
       -3.71213089        0.79748849        0.01050401        0.05860486        0.71555880        0.01041857        0.00240226
       -3.70212088        0.78339026        0.01027100        0.05827581        0.70233163        0.01020840        0.00230341
       -3.69211087        0.77014927        0.01002346        0.05822284        0.68966918        0.01002008        0.00221370
       -3.68210086        0.75777305        0.00976261        0.05841599        0.67760406        0.00985718        0.00213321
       -3.67209085        0.74626889        0.00949024        0.05882289        0.66617086        0.00972300        0.00206191
       -3.66208084        0.73563989        0.00920852        0.05940908        0.65540230        0.00962038        0.00199960
       -3.65207083        0.72588194        0.00891983        0.06013844        0.64532612        0.00955156        0.00194600
       -3.64206082        0.71698165        0.00862660        0.06097362        0.63596279        0.00951796        0.00190067
       -3.63205081        0.70891530        0.00833117        0.06187674        0.62732418        0.00952013        0.00186308
       -3.62204080        0.70164887        0.00803564        0.06281001        0.61941302        0.00955760        0.00183259
       -3.61203079        0.69513890        0.00774176        0.06373650        0.61222327        0.00962887        0.00180851
       -3.60202078        0.68933414        0.00745088        0.06462091        0.60574093        0.00973135        0.00179008
       -3.59201077        0.68417761        0.00716393        0.06543024        0.59994545        0.00986144        0.00177655
       -3.58200076        0.67960899        0.00688140        0.06613453        0.59481131        0.01001462        0.00176713
       -3.57199075        0.67556705        0.00660339        0.06670734        0.59030967        0.01018555        0.00176109
       -3.56198074        0.67199185        0.00632970        0.06712624        0.58640991        0.01036828        0.00175772
       -3.55197073        0.66882665        0.00605987        0.06737304        0.58308093        0.01055641        0.00175640
       -3.54196072        0.66601924        0.00579332        0.06743393        0.58029201        0.01074342        0.00175657
       -3.53195071        0.66352273        0.00552941        0.06729944        0.57801328        0.01092284        0.00175777
       -3.52194070        0.66129571        0.00526758        0.06696428        0.57621567        0.01108856        0.00175962
       -3.51193069        0.65930178        0.00500739        0.06642705        0.57487042        0.01123508        0.00176185
       -3.50192068        0.65750855        0.00474859        0.06568989        0.57394810        0.01135773        0.00176425
       -3.49191067        0.65588625        0.00449118        0.06475809        0.57341743        0.01145286        0.00176670
       -3.48190066        0.65440599        0.00423540        0.06363965        0.57324381        0.01151799        0.00176915
       -3.47189065        0.65303809        0.00398176        0.06234491        0.57338792        0.01155192        0.00177159
       -3.46188064        0.65175037        0.00373098        0.06088620        0.57380446        0.01155470        0.00177403
       -3.45187063        0.65050690        0.00348401        0.05927757        0.57444119        0.01152763        0.00177651
       -3.44186062        0.64926726        0.00324191        0.05753452        0.57523861        0.01147317        0.00177906
       -3.43185061        0.64798637        0.00300586        0.05567391        0.57613016        0.01139475        0.00178170
       -3.42184060        0.64661525        0.00277711        0.05371384        0.57704329        0.01129659        0.00178442
       -3.41183059        0.64510248        0.00255689        0.05167364        0.57790127        0.01118348        0.00178720
       -3.40182058        0.64339652        0.00234644        0.04957381        0.57862577        0.01106051        0.00178998
       -3.39181057        0.64144872        0.00214692        0.04743610        0.57914013        0.01093289        0.00179267
       -3.38180056        0.63921685        0.00195945        0.04528345        0.57937312        0.01080565        0.00179519
       -3.37179055        0.63666899        0.00178509        0.04314000        0.57926297        0.01068351        0.00179742
       -3.36178054        0.63378735        0.00162483        0.04103105        0.57876146        0.01057073        0.00179929
