#  aims_uuid : F128D8B5-E5F3-407F-ADF6-DC6AC86BB935                                
#  angular momentum projected density of states for species S as calculated by FHI-aims 
# The energy reference for this output is the chemical potential, mu =      -5.106688 eV
#      Energy (eV)         total dos     l= 0              l= 1              l= 2              l= 3              l= 4
       -4.89331207        1.03986256        0.07030983        0.91192203        0.05105652        0.00595012        0.00062406
       -4.88330206        1.08540627        0.07410349        0.95078693        0.05361665        0.00624792        0.00065128
       -4.87329205        1.13014356        0.07780585        0.98900455        0.05611428        0.00653948        0.00067940
       -4.86328204        1.17365242        0.08139502        1.02619926        0.05852708        0.00682286        0.00070820
       -4.85327203        1.21553263        0.08485092        1.06201464        0.06083338        0.00709621        0.00073747
       -4.84326202        1.25541304        0.08815533        1.09612045        0.06301250        0.00735776        0.00076699
       -4.83325201        1.29295738        0.09129188        1.12821813        0.06504502        0.00760581        0.00079653
       -4.82324200        1.32786848        0.09424599        1.15804484        0.06691302        0.00783876        0.00082586
       -4.81323199        1.35989096        0.09700478        1.18537600        0.06860035        0.00805508        0.00085474
       -4.80322198        1.38881258        0.09955696        1.21002651        0.07009282        0.00825334        0.00088294
       -4.79321197        1.41446427        0.10189268        1.23185072        0.07137843        0.00843221        0.00091022
       -4.78320196        1.43671916        0.10400349        1.25074135        0.07244753        0.00859046        0.00093633
       -4.77319195        1.45549069        0.10588215        1.26662755        0.07329293        0.00872702        0.00096105
       -4.76318194        1.47073002        0.10752256        1.27947232        0.07391007        0.00884093        0.00098413
       -4.75317193        1.48242298        0.10891968        1.28926944        0.07429705        0.00893146        0.00100536
       -4.74316192        1.49058661        0.11006942        1.29604004        0.07445460        0.00899801        0.00102453
       -4.73315191        1.49526555        0.11096858        1.29982916        0.07438610        0.00904025        0.00104145
       -4.72314190        1.49652839        0.11161479        1.30070220        0.07409742        0.00905804        0.00105596
       -4.71313189        1.49446416        0.11200642        1.29874159        0.07359677        0.00905147        0.00106791
       -4.70312188        1.48917898        0.11214261        1.29404379        0.07289446        0.00902090        0.00107722
       -4.69311187        1.48079314        0.11202325        1.28671654        0.07200266        0.00896688        0.00108381
       -4.68310186        1.46943868        0.11164897        1.27687676        0.07093506        0.00889022        0.00108766
       -4.67309185        1.45525739        0.11102127        1.26464883        0.06970657        0.00879192        0.00108880
       -4.66308184        1.43839952        0.11014258        1.25016347        0.06833301        0.00867319        0.00108727
       -4.65307183        1.41902292        0.10901643        1.23355715        0.06683076        0.00853539        0.00108319
       -4.64306182        1.39729272        0.10764761        1.21497191        0.06521648        0.00838006        0.00107668
       -4.63305181        1.37338146        0.10604236        1.19455544        0.06350689        0.00820886        0.00106791
       -4.62304180        1.34746926        0.10420860        1.17246150        0.06171849        0.00802358        0.00105709
       -4.61303179        1.31974422        0.10215608        1.14885017        0.05986745        0.00782610        0.00104442
       -4.60302178        1.29040251        0.09989653        1.12388805        0.05796940        0.00761837        0.00103015
       -4.59301177        1.25964823        0.09744380        1.09774810        0.05603938        0.00740242        0.00101453
       -4.58300176        1.22769274        0.09481381        1.07060908        0.05409175        0.00718031        0.00099780
       -4.57299175        1.19475338        0.09202453        1.04265442        0.05214011        0.00695410        0.00098023
       -4.56298174        1.16105172        0.08909581        1.01407070        0.05019727        0.00672589        0.00096205
       -4.55297173        1.12681113        0.08604914        0.98504555        0.04827523        0.00649771        0.00094351
       -4.54296172        1.09225410        0.08290728        0.95576533        0.04638509        0.00627155        0.00092484
       -4.53295171        1.05759924        0.07969389        0.92641270        0.04453706        0.00604932        0.00090626
       -4.52294170        1.02305843        0.07643305        0.89716419        0.04274041        0.00583281        0.00088797
       -4.51293169        0.98883422        0.07314875        0.86818822        0.04100343        0.00562366        0.00087016
       -4.50292168        0.95511779        0.06986449        0.83964354        0.03933340        0.00542335        0.00085301
       -4.49291167        0.92208781        0.06660276        0.81167856        0.03773663        0.00523318        0.00083667
       -4.48290166        0.88991006        0.06338468        0.78443139        0.03621846        0.00505423        0.00082130
       -4.47289165        0.85873820        0.06022967        0.75803085        0.03478327        0.00488737        0.00080704
       -4.46288164        0.82871550        0.05715525        0.73259833        0.03343462        0.00473326        0.00079405
       -4.45287163        0.79997735        0.05417691        0.70825037        0.03217528        0.00459234        0.00078245
       -4.44286162        0.77265449        0.05130808        0.68510173        0.03100741        0.00446488        0.00077240
       -4.43285161        0.74687657        0.04856016        0.66326875        0.02993268        0.00435095        0.00076404
       -4.42284160        0.72277581        0.04594273        0.64287262        0.02895243        0.00425051        0.00075753
       -4.41283159        0.70049023        0.04346370        0.62404231        0.02806782        0.00416337        0.00075304
       -4.40282158        0.68016634        0.04112955        0.60691676        0.02727998        0.00408931        0.00075074
       -4.39281157        0.66196083        0.03894562        0.59164617        0.02659016        0.00402804        0.00075084
       -4.38280156        0.64604108        0.03691631        0.57839212        0.02599982        0.00397930        0.00075353
       -4.37279155        0.63258426        0.03504533        0.56732637        0.02551069        0.00394287        0.00075901
       -4.36278154        0.62177504        0.03333586        0.55862826        0.02512484        0.00391858        0.00076749
       -4.35277153        0.61380174        0.03179070        0.55248085        0.02484463        0.00390638        0.00077919
       -4.34276152        0.60885123        0.03041224        0.54906566        0.02467267        0.00390636        0.00079431
       -4.33275151        0.60710249        0.02920253        0.54855647        0.02461173        0.00391873        0.00081303
       -4.32274150        0.60871924        0.02816316        0.55111215        0.02466457        0.00394385        0.00083552
       -4.31273149        0.61384194        0.02729505        0.55686898        0.02483378        0.00398221        0.00086192
       -4.30272148        0.62257930        0.02659835        0.56593262        0.02512153        0.00403446        0.00089234
       -4.29271147        0.63499985        0.02607208        0.57837024        0.02552936        0.00410132        0.00092685
       -4.28270146        0.65112392        0.02571397        0.59420302        0.02605788        0.00418359        0.00096545
       -4.27269145        0.67091634        0.02552009        0.61339947        0.02670656        0.00428209        0.00100812
       -4.26268144        0.69428022        0.02548466        0.63586978        0.02747342        0.00439762        0.00105474
       -4.25267143        0.72105236        0.02559982        0.66146173        0.02835481        0.00453085        0.00110516
       -4.24266142        0.75100032        0.02585543        0.68995824        0.02934521        0.00468233        0.00115911
       -4.23265141        0.78382158        0.02623905        0.72107679        0.03043708        0.00485235        0.00121630
       -4.22264140        0.81914503        0.02673590        0.75447112        0.03162074        0.00504093        0.00127633
       -4.21263139        0.85653471        0.02732895        0.78973494        0.03288435        0.00524772        0.00133875
       -4.20262138        0.89549602        0.02799918        0.82640791        0.03421397        0.00547196        0.00140301
       -4.19261137        0.93548419        0.02872585        0.86398373        0.03559367        0.00571242        0.00146852
       -4.18260136        0.97591486        0.02948692        0.90192013        0.03700577        0.00596741        0.00153463
       -4.17259135        1.01617651        0.03025955        0.93965047        0.03843112        0.00623473        0.00160064
       -4.16258134        1.05564432        0.03102066        0.97659667        0.03984946        0.00651172        0.00166581
       -4.15257133        1.09369499        0.03174749        1.01218297        0.04123990        0.00679525        0.00172938
       -4.14256132        1.12972205        0.03241828        1.04585004        0.04258135        0.00708179        0.00179060
       -4.13255131        1.16315105        0.03301280        1.07706901        0.04385305        0.00736749        0.00184869
       -4.12254130        1.19345411        0.03351295        1.10535481        0.04503514        0.00764826        0.00190295
       -4.11253129        1.22016325        0.03390322        1.13027836        0.04610911        0.00791987        0.00195268
       -4.10252128        1.24288203        0.03417107        1.15147731        0.04705835        0.00817804        0.00199726
       -4.09251127        1.26129520        0.03430722        1.16866467        0.04786857        0.00841862        0.00203612
       -4.08250126        1.27517578        0.03430578        1.18163539        0.04852816        0.00863765        0.00206879
       -4.07249125        1.28438962        0.03416431        1.19027038        0.04902855        0.00883149        0.00209489
       -4.06248124        1.28889725        0.03388366        1.19453816        0.04936435        0.00899696        0.00211413
       -4.05247123        1.28875294        0.03346779        1.19449388        0.04953356        0.00913138        0.00212634
       -4.04246122        1.28410119        0.03292347        1.19027608        0.04953749        0.00923271        0.00213144
       -4.03245121        1.27517077        0.03225986        1.18210107        0.04938079        0.00929957        0.00212947
       -4.02244120        1.26226665        0.03148810        1.17025545        0.04907121        0.00933129        0.00212059
       -4.01243119        1.24576005        0.03062084        1.15508685        0.04861938        0.00932794        0.00210503
       -4.00242118        1.22607702        0.02967180        1.13699329        0.04803849        0.00929030        0.00208315
       -3.99241117        1.20368591        0.02865529        1.11641151        0.04734389        0.00921985        0.00205536
       -3.98240116        1.17908410        0.02758586        1.09380465        0.04655266        0.00911875        0.00202218
       -3.97239115        1.15278447        0.02647794        1.06964954        0.04568309        0.00898970        0.00198420
       -3.96238114        1.12530187        0.02534551        1.04442412        0.04475427        0.00883595        0.00194203
       -3.95237113        1.09714003        0.02420192        1.01859517        0.04378547        0.00866112        0.00189636
       -3.94236112        1.06877924        0.02305968        0.99260681        0.04279572        0.00846914        0.00184789
       -3.93235111        1.04066522        0.02193036        0.96687009        0.04180331        0.00826412        0.00179733
       -3.92234110        1.01319933        0.02082447        0.94175386        0.04082533        0.00805025        0.00174541
       -3.91233109        0.98673053        0.01975144        0.91757734        0.03987728        0.00783165        0.00169282
       -3.90232108        0.96154926        0.01871957        0.89460442        0.03897274        0.00761229        0.00164024
       -3.89231107        0.93788336        0.01773600        0.87304008        0.03812314        0.00739587        0.00158827
       -3.88230106        0.91589626        0.01680675        0.85302876        0.03733754        0.00718571        0.00153750
       -3.87229105        0.89568727        0.01593668        0.83465491        0.03662255        0.00698472        0.00148841
       -3.86228104        0.87729411        0.01512950        0.81794554        0.03598234        0.00679531        0.00144142
       -3.85227103        0.86069730        0.01438778        0.80287460        0.03541868        0.00661936        0.00139688
       -3.84226102        0.84582643        0.01371299        0.78936907        0.03493115        0.00645818        0.00135504
       -3.83225101        0.83256770        0.01310551        0.77731625        0.03451733        0.00631255        0.00131606
       -3.82224100        0.82077267        0.01256465        0.76657213        0.03417310        0.00618275        0.00128004
       -3.81223099        0.81026753        0.01208878        0.75697025        0.03389298        0.00606853        0.00124698
       -3.80222098        0.80086273        0.01167535        0.74833079        0.03367047        0.00596928        0.00121683
       -3.79221097        0.79236229        0.01132102        0.74046933        0.03349844        0.00588401        0.00118949
       -3.78220096        0.78457271        0.01102178        0.73320520        0.03336949        0.00581145        0.00116478
       -3.77219095        0.77731086        0.01077309        0.72636879        0.03327626        0.00575020        0.00114253
       -3.76218094        0.77041088        0.01057000        0.71980785        0.03321179        0.00569871        0.00112253
       -3.75217093        0.76372965        0.01040735        0.71339254        0.03316974        0.00565545        0.00110457
       -3.74216092        0.75715091        0.01027991        0.70701904        0.03314461        0.00561894        0.00108842
       -3.73215091        0.75058793        0.01018248        0.70061184        0.03313189        0.00558782        0.00107391
       -3.72214090        0.74398464        0.01011012        0.69412463        0.03312813        0.00556092        0.00106084
       -3.71213089        0.73731546        0.01005816        0.68753993        0.03313101        0.00553727        0.00104908
       -3.70212088        0.73058378        0.01002240        0.68086744        0.03313926        0.00551617        0.00103851
       -3.69211087        0.72381922        0.00999909        0.67414134        0.03315261        0.00549712        0.00102906
       -3.68210086        0.71707384        0.00998504        0.66741658        0.03317166        0.00547990        0.00102066
       -3.67209085        0.71041745        0.00997761        0.66076432        0.03319770        0.00546451        0.00101331
       -3.66208084        0.70393209        0.00997469        0.65426673        0.03323253        0.00545111        0.00100702
       -3.65207083        0.69770596        0.00997467        0.64801116        0.03327825        0.00544005        0.00100183
       -3.64206082        0.69182699        0.00997642        0.64208403        0.03333698        0.00543177        0.00099779
       -3.63205081        0.68637627        0.00997915        0.63656470        0.03341068        0.00542677        0.00099497
       -3.62204080        0.68142162        0.00998240        0.63151940        0.03350084        0.00542555        0.00099343
       -3.61203079        0.67701174        0.00998589        0.62699568        0.03360835        0.00542859        0.00099324
       -3.60202078        0.67317104        0.00998945        0.62301769        0.03373321        0.00543625        0.00099445
       -3.59201077        0.66989575        0.00999294        0.61958250        0.03387445        0.00544877        0.00099710
       -3.58200076        0.66715136        0.00999616        0.61665781        0.03402995        0.00546625        0.00100120
       -3.57199075        0.66487186        0.00999881        0.61418135        0.03419642        0.00548856        0.00100672
       -3.56198074        0.66296077        0.01000042        0.61206195        0.03436938        0.00551541        0.00101362
       -3.55197073        0.66129410        0.01000032        0.61018247        0.03454322        0.00554628        0.00102180
       -3.54196072        0.65972519        0.00999769        0.60840455        0.03471133        0.00558047        0.00103115
       -3.53195071        0.65809112        0.00999149        0.60657475        0.03486629        0.00561709        0.00104149
       -3.52194070        0.65622048        0.00998060        0.60453209        0.03500006        0.00565509        0.00105263
       -3.51193069        0.65394201        0.00996378        0.60211625        0.03510433        0.00569331        0.00106434
       -3.50192068        0.65109354        0.00993978        0.59917615        0.03517078        0.00573048        0.00107635
       -3.49191067        0.64753080        0.00990740        0.59557829        0.03519140        0.00576532        0.00108839
       -3.48190066        0.64313538        0.00986558        0.59121427        0.03515887        0.00579651        0.00110016
       -3.47189065        0.63782147        0.00981343        0.58600711        0.03506679        0.00582278        0.00111136
       -3.46188064        0.63154086        0.00975032        0.57991585        0.03491005        0.00584297        0.00112167
       -3.45187063        0.62428601        0.00967594        0.57293828        0.03468498        0.00585600        0.00113081
       -3.44186062        0.61609091        0.00959030        0.56511149        0.03438964        0.00586098        0.00113850
       -3.43185061        0.60702979        0.00949374        0.55651045        0.03402389        0.00585721        0.00114450
       -3.42184060        0.59721391        0.00938699        0.54724461        0.03358952        0.00584421        0.00114858
       -3.41183059        0.58678656        0.00927111        0.53745287        0.03309025        0.00582176        0.00115058
       -3.40182058        0.57591679        0.00914746        0.52729733        0.03253170        0.00578991        0.00115039
       -3.39181057        0.56479220        0.00901771        0.51695622        0.03192132        0.00574899        0.00114795
       -3.38180056        0.55361139        0.00888375        0.50661647        0.03126827        0.00569964        0.00114326
       -3.37179055        0.54257648        0.00874768        0.49646642        0.03058318        0.00564279        0.00113641
       -3.36178054        0.53188601        0.00861174        0.48668906        0.02987802        0.00557964        0.00112754
