#  aims_uuid : F128D8B5-E5F3-407F-ADF6-DC6AC86BB935                                
#  angular momentum projected density of states for species S as calculated by FHI-aims 
# The energy reference for this output is the chemical potential, mu =      -5.106688 eV
#      Energy (eV)         total dos     l= 0              l= 1              l= 2              l= 3              l= 4
       -4.89331207        0.90990651        0.07104499        0.78204752        0.05025753        0.00594365        0.00061281
       -4.88330206        0.95935133        0.07594363        0.82349869        0.05300136        0.00627020        0.00063745
       -4.87329205        1.00887864        0.08085178        0.86506637        0.05570499        0.00659193        0.00066357
       -4.86328204        1.05812626        0.08573430        0.90644779        0.05834663        0.00690646        0.00069108
       -4.85327203        1.10672404        0.09055497        0.94733315        0.06090461        0.00721145        0.00071985
       -4.84326202        1.15429637        0.09527670        0.98740765        0.06335761        0.00750468        0.00074973
       -4.83325201        1.20046437        0.09986174        1.02635327        0.06568481        0.00778400        0.00078055
       -4.82324200        1.24484813        0.10427204        1.06385055        0.06786607        0.00804738        0.00081209
       -4.81323199        1.28706915        0.10846952        1.09958043        0.06988217        0.00829290        0.00084413
       -4.80322198        1.32675335        0.11241656        1.13322661        0.07171498        0.00851878        0.00087641
       -4.79321197        1.36353477        0.11607649        1.16447844        0.07334781        0.00872339        0.00090864
       -4.78320196        1.39706015        0.11941418        1.19303461        0.07476559        0.00890527        0.00094050
       -4.77319195        1.42699438        0.12239671        1.21860759        0.07595527        0.00906316        0.00097164
       -4.76318194        1.45302670        0.12499405        1.24092886        0.07690605        0.00919602        0.00100172
       -4.75317193        1.47487758        0.12717981        1.25975464        0.07760973        0.00930304        0.00103035
       -4.74316192        1.49230569        0.12893190        1.27487203        0.07806090        0.00938370        0.00105717
       -4.73315191        1.50511497        0.13023311        1.28610512        0.07825718        0.00943775        0.00108181
       -4.72314190        1.51316096        0.13107166        1.29332081        0.07819933        0.00946524        0.00110392
       -4.71313189        1.51635642        0.13144148        1.29643396        0.07789127        0.00946651        0.00112320
       -4.70312188        1.51467552        0.13134244        1.29541147        0.07734003        0.00944221        0.00113938
       -4.69311187        1.50815659        0.13078033        1.29027521        0.07655560        0.00939323        0.00115221
       -4.68310186        1.49690304        0.12976662        1.28110342        0.07555069        0.00932076        0.00116156
       -4.67309185        1.48108253        0.12831815        1.26803052        0.07434040        0.00922615        0.00116731
       -4.66308184        1.46092430        0.12645659        1.25124540        0.07294191        0.00911097        0.00116944
       -4.65307183        1.43671490        0.12420780        1.23098814        0.07137404        0.00897693        0.00116798
       -4.64306182        1.40879229        0.12160117        1.20754539        0.06965684        0.00882584        0.00116305
       -4.63305181        1.37753886        0.11866881        1.18124445        0.06781122        0.00865957        0.00115481
       -4.62304180        1.34337338        0.11544488        1.15244643        0.06585853        0.00848004        0.00114351
       -4.61303179        1.30674224        0.11196484        1.12153858        0.06382022        0.00828917        0.00112942
       -4.60302178        1.26811032        0.10826484        1.08892617        0.06171755        0.00808887        0.00111289
       -4.59301177        1.22795165        0.10438111        1.05502399        0.05957127        0.00788101        0.00109427
       -4.58300176        1.18674013        0.10034953        1.02024782        0.05740140        0.00766743        0.00107395
       -4.57299175        1.14494055        0.09620520        0.98500606        0.05522705        0.00744990        0.00105234
       -4.56298174        1.10300006        0.09198213        0.94969174        0.05306620        0.00723015        0.00102984
       -4.55297173        1.06134032        0.08771298        0.91467511        0.05093559        0.00700981        0.00100684
       -4.54296172        1.02035063        0.08342885        0.88029706        0.04885054        0.00679047        0.00098372
       -4.53295171        0.98038204        0.07915912        0.84686360        0.04682488        0.00657361        0.00096083
       -4.52294170        0.94174279        0.07493133        0.81464152        0.04487081        0.00636063        0.00093850
       -4.51293169        0.90469525        0.07077100        0.78385553        0.04299886        0.00615285        0.00091701
       -4.50292168        0.86945442        0.06670159        0.75468696        0.04121781        0.00595143        0.00089661
       -4.49291167        0.83618816        0.06274435        0.72727411        0.03953471        0.00575747        0.00087753
       -4.48290166        0.80501918        0.05891827        0.70171421        0.03795489        0.00557189        0.00085992
       -4.47289165        0.77602866        0.05524001        0.67806717        0.03648203        0.00539551        0.00084395
       -4.46288164        0.74926151        0.05172389        0.65636060        0.03511828        0.00522901        0.00082974
       -4.45287163        0.72473287        0.04838189        0.63659620        0.03386444        0.00507295        0.00081739
       -4.44286162        0.70243566        0.04522372        0.61875702        0.03272016        0.00492776        0.00080700
       -4.43285161        0.68234879        0.04225691        0.60281528        0.03168417        0.00479378        0.00079866
       -4.42284160        0.66444549        0.03948690        0.58874029        0.03075458        0.00467125        0.00079247
       -4.41283159        0.64870145        0.03691730        0.57650610        0.02992915        0.00456037        0.00078853
       -4.40282158        0.63510229        0.03455000        0.56609846        0.02920557        0.00446131        0.00078696
       -4.39281157        0.62364994        0.03238542        0.55752063        0.02858177        0.00437421        0.00078791
       -4.38280156        0.61436754        0.03042274        0.55079786        0.02805612        0.00429928        0.00079153
       -4.37279155        0.60730282        0.02866007        0.54598026        0.02762770        0.00423677        0.00079801
       -4.36278154        0.60252955        0.02709464        0.54314390        0.02729643        0.00418703        0.00080756
       -4.35277153        0.60014715        0.02572297        0.54239010        0.02706320        0.00415051        0.00082037
       -4.34276152        0.60027839        0.02454094        0.54384309        0.02692987        0.00412782        0.00083667
       -4.33275151        0.60306544        0.02354389        0.54764586        0.02689928        0.00411972        0.00085669
       -4.32274150        0.60866416        0.02272663        0.55395466        0.02697512        0.00412712        0.00088063
       -4.31273149        0.61723709        0.02208338        0.56293217        0.02716178        0.00415106        0.00090869
       -4.30272148        0.62894527        0.02160778        0.57473966        0.02746405        0.00419276        0.00094103
       -4.29271147        0.64393910        0.02129271        0.58952829        0.02788683        0.00425350        0.00097777
       -4.28270146        0.66234860        0.02113027        0.60742991        0.02843479        0.00433463        0.00101900
       -4.27269145        0.68427325        0.02111161        0.62854753        0.02911188        0.00443750        0.00106473
       -4.26268144        0.70977185        0.02122684        0.65294573        0.02992098        0.00456339        0.00111491
       -4.25267143        0.73885258        0.02146494        0.68064141        0.03086338        0.00471344        0.00116941
       -4.24266142        0.77146374        0.02181373        0.71159505        0.03193838        0.00488855        0.00122803
       -4.23265141        0.80748544        0.02225980        0.74570296        0.03314292        0.00508931        0.00129045
       -4.22264140        0.84672283        0.02278861        0.78279087        0.03447119        0.00531586        0.00135629
       -4.21263139        0.88890114        0.02338452        0.82260922        0.03591444        0.00556790        0.00142507
       -4.20262138        0.93366311        0.02403098        0.86483064        0.03746079        0.00584452        0.00149619
       -4.19261137        0.98056913        0.02471068        0.90905000        0.03909526        0.00614420        0.00156899
       -4.18260136        1.02910051        0.02540586        0.95478732        0.04079984        0.00646476        0.00164273
       -4.17259135        1.07866608        0.02609858        1.00149379        0.04255376        0.00680336        0.00171660
       -4.16258134        1.12861215        0.02677106        1.04856100        0.04433388        0.00715649        0.00178972
       -4.15257133        1.17823580        0.02740606        1.09533332        0.04611521        0.00752002        0.00186119
       -4.14256132        1.22680130        0.02798725        1.14112315        0.04787150        0.00788931        0.00193010
       -4.13255131        1.27355881        0.02849959        1.18522850        0.04957593        0.00825926        0.00199553
       -4.12254130        1.31776509        0.02892969        1.22695239        0.05120195        0.00862446        0.00205661
       -4.11253129        1.35870499        0.02926615        1.26562310        0.05272392        0.00897933        0.00211250
       -4.10252128        1.39571294        0.02949978        1.30061441        0.05411800        0.00931831        0.00216244
       -4.09251127        1.42819325        0.02962387        1.33136486        0.05536276        0.00963596        0.00220579
       -4.08250126        1.45563830        0.02963429        1.35739496        0.05643987        0.00992719        0.00224200
       -4.07249125        1.47764369        0.02952954        1.37832158        0.05733457        0.01018737        0.00227064
       -4.06248124        1.49391947        0.02931072        1.39386870        0.05803609        0.01041253        0.00229143
       -4.05247123        1.50429704        0.02898143        1.40387405        0.05853790        0.01059942        0.00230423
       -4.04246122        1.50873134        0.02854751        1.40829134        0.05883777        0.01074567        0.00230905
       -4.03245121        1.50729844        0.02801686        1.40718802        0.05893773        0.01084981        0.00230603
       -4.02244120        1.50018867        0.02739905        1.40073899        0.05884387        0.01091131        0.00229544
       -4.01243119        1.48769585        0.02670502        1.38921651        0.05856603        0.01093062        0.00227767
       -4.00242118        1.47020339        0.02594663        1.37297717        0.05811730        0.01090905        0.00225323
       -3.99241117        1.44816806        0.02513637        1.35244663        0.05751354        0.01084880        0.00222271
       -3.98240116        1.42210229        0.02428691        1.32810306        0.05677277        0.01075278        0.00218676
       -3.97239115        1.39255599        0.02341081        1.30046005        0.05591451        0.01062453        0.00214609
       -3.96238114        1.36009875        0.02252018        1.27004992        0.05495916        0.01046806        0.00210143
       -3.95237113        1.32530303        0.02162648        1.23740802        0.05392728        0.01028773        0.00205352
       -3.94236112        1.28872914        0.02074024        1.20305868        0.05283908        0.01008802        0.00200311
       -3.93235111        1.25091220        0.01987098        1.16750313        0.05171373        0.00987348        0.00195089
       -3.92234110        1.21235162        0.01902704        1.13120964        0.05056895        0.00964847        0.00189752
       -3.91233109        1.17350291        0.01821558        1.09460606        0.04942054        0.00941712        0.00184361
       -3.90232108        1.13477204        0.01744252        1.05807460        0.04828207        0.00918315        0.00178970
       -3.89231107        1.09651214        0.01671255        1.02194884        0.04716468        0.00894982        0.00173626
       -3.88230106        1.05902229        0.01602920        0.98651262        0.04607697        0.00871984        0.00168366
       -3.87229105        1.02254824        0.01539487        0.95200079        0.04502499        0.00849538        0.00163221
       -3.86228104        0.98728475        0.01481089        0.91860129        0.04401243        0.00827801        0.00158213
       -3.85227103        0.95337923        0.01427763        0.88645849        0.04304075        0.00806877        0.00153359
       -3.84226102        0.92093649        0.01379456        0.85567745        0.04210962        0.00786820        0.00148666
       -3.83225101        0.89002417        0.01336039        0.82632883        0.04121720        0.00767639        0.00144136
       -3.82224100        0.86067875        0.01297308        0.79845419        0.04036068        0.00749310        0.00139769
       -3.81223099        0.83291171        0.01263005        0.77207153        0.03953669        0.00731784        0.00135559
       -3.80222098        0.80671574        0.01232821        0.74718076        0.03874180        0.00714998        0.00131499
       -3.79221097        0.78207054        0.01206410        0.72376886        0.03797295        0.00698881        0.00127581
       -3.78220096        0.75894816        0.01183400        0.70181465        0.03722788        0.00683367        0.00123797
       -3.77219095        0.73731765        0.01163405        0.68129283        0.03650536        0.00668401        0.00120140
       -3.76218094        0.71714865        0.01146035        0.66217729        0.03580549        0.00653946        0.00116606
       -3.75217093        0.69841407        0.01130908        0.64444347        0.03512975        0.00639983        0.00113194
       -3.74216092        0.68109157        0.01117657        0.62806971        0.03448105        0.00626520        0.00109904
       -3.73215091        0.66516393        0.01105943        0.61303767        0.03386358        0.00613584        0.00106741
       -3.72214090        0.65061835        0.01095459        0.59933179        0.03328262        0.00601225        0.00103710
       -3.71213089        0.63744480        0.01085934        0.58693789        0.03274427        0.00589510        0.00100821
       -3.70212088        0.62563360        0.01077139        0.57584112        0.03225508        0.00578518        0.00098082
       -3.69211087        0.61517242        0.01068885        0.56602345        0.03182169        0.00568336        0.00095506
       -3.68210086        0.60604311        0.01061022        0.55746092        0.03145042        0.00559051        0.00093103
       -3.67209085        0.59821842        0.01053433        0.55012089        0.03114690        0.00550746        0.00090884
       -3.66208084        0.59165908        0.01046032        0.54395957        0.03091571        0.00543493        0.00088856
       -3.65207083        0.58631137        0.01038750        0.53892005        0.03076008        0.00537348        0.00087026
       -3.64206082        0.58210547        0.01031532        0.53493095        0.03068171        0.00532350        0.00085399
       -3.63205081        0.57895462        0.01024325        0.53190592        0.03068056        0.00528514        0.00083976
       -3.62204080        0.57675539        0.01017067        0.52974406        0.03075478        0.00525833        0.00082755
       -3.61203079        0.57538885        0.01009684        0.52833116        0.03090076        0.00524277        0.00081731
       -3.60202078        0.57472269        0.01002081        0.52754184        0.03111315        0.00523791        0.00080897
       -3.59201077        0.57461422        0.00994135        0.52724241        0.03138503        0.00524301        0.00080242
       -3.58200076        0.57491393        0.00985700        0.52729421        0.03170805        0.00525713        0.00079755
       -3.57199075        0.57546952        0.00976605        0.52755736        0.03207275        0.00527916        0.00079419
       -3.56198074        0.57613000        0.00966659        0.52789458        0.03246873        0.00530790        0.00079220
       -3.55197073        0.57674979        0.00955659        0.52817484        0.03288494        0.00534202        0.00079140
       -3.54196072        0.57719242        0.00943398        0.52827664        0.03330999        0.00538018        0.00079163
       -3.53195071        0.57733364        0.00929681        0.52809076        0.03373239        0.00542099        0.00079269
       -3.52194070        0.57706392        0.00914331        0.52752228        0.03414080        0.00546309        0.00079443
       -3.51193069        0.57629002        0.00897205        0.52649186        0.03452426        0.00550517        0.00079668
       -3.50192068        0.57493587        0.00878206        0.52493615        0.03487243        0.00554597        0.00079926
       -3.49191067        0.57294253        0.00857287        0.52280760        0.03517570        0.00558432        0.00080202
       -3.48190066        0.57026763        0.00834466        0.52007356        0.03542541        0.00561917        0.00080483
       -3.47189065        0.56688421        0.00809819        0.51671498        0.03561392        0.00564957        0.00080753
       -3.46188064        0.56277927        0.00783493        0.51272489        0.03573475        0.00567469        0.00081002
       -3.45187063        0.55795232        0.00755691        0.50810680        0.03578262        0.00569384        0.00081216
       -3.44186062        0.55241397        0.00726672        0.50287336        0.03575357        0.00570645        0.00081387
       -3.43185061        0.54618484        0.00696744        0.49704525        0.03564500        0.00571211        0.00081504
       -3.42184060        0.53929491        0.00666245        0.49065059        0.03545571        0.00571056        0.00081561
       -3.41183059        0.53178341        0.00635538        0.48372486        0.03518601        0.00570166        0.00081550
       -3.40182058        0.52369915        0.00604997        0.47631130        0.03483773        0.00568547        0.00081469
       -3.39181057        0.51510135        0.00574991        0.46846179        0.03441429        0.00566221        0.00081315
       -3.38180056        0.50606072        0.00545879        0.46023800        0.03392078        0.00563227        0.00081089
       -3.37179055        0.49666080        0.00517996        0.45171269        0.03336397        0.00559623        0.00080795
       -3.36178054        0.48699911        0.00491651        0.44297098        0.03275232        0.00555490        0.00080442
