#  aims_uuid : F128D8B5-E5F3-407F-ADF6-DC6AC86BB935                                
#  angular momentum projected density of states for species S as calculated by FHI-aims 
# The energy reference for this output is the chemical potential, mu =      -5.106688 eV
#      Energy (eV)         total dos     l= 0              l= 1              l= 2              l= 3              l= 4
       -4.89331207        0.93189068        0.07020188        0.80282037        0.05217108        0.00609306        0.00060429
       -4.88330206        0.97627055        0.07346293        0.84075811        0.05502309        0.00639162        0.00063481
       -4.87329205        1.02043848        0.07667410        0.87860816        0.05780609        0.00668326        0.00066687
       -4.86328204        1.06401142        0.07981170        0.91603571        0.06049781        0.00696596        0.00070024
       -4.85327203        1.10660520        0.08285271        0.95270339        0.06307662        0.00723779        0.00073468
       -4.84326202        1.14783955        0.08577499        0.98827597        0.06552173        0.00749693        0.00076993
       -4.83325201        1.18734283        0.08855751        1.02242463        0.06781336        0.00774163        0.00080570
       -4.82324200        1.22475639        0.09118052        1.05483105        0.06993286        0.00797025        0.00084171
       -4.81323199        1.25973862        0.09362562        1.08519114        0.07186295        0.00818126        0.00087764
       -4.80322198        1.29196911        0.09587593        1.11321889        0.07358787        0.00837325        0.00091317
       -4.79321197        1.32115261        0.09791613        1.13865000        0.07509356        0.00854493        0.00094799
       -4.78320196        1.34702315        0.09973253        1.16124573        0.07636795        0.00869519        0.00098175
       -4.77319195        1.36934813        0.10131321        1.18079659        0.07740115        0.00882305        0.00101413
       -4.76318194        1.38793230        0.10264798        1.19712606        0.07818568        0.00892775        0.00104483
       -4.75317193        1.40262149        0.10372854        1.21009404        0.07871668        0.00900871        0.00107352
       -4.74316192        1.41330590        0.10454845        1.21959983        0.07899209        0.00906560        0.00109992
       -4.73315191        1.41992267        0.10510321        1.22558459        0.07901278        0.00909831        0.00112377
       -4.72314190        1.42245752        0.10539024        1.22803289        0.07878257        0.00910697        0.00114485
       -4.71313189        1.42094534        0.10540891        1.22697331        0.07830820        0.00909196        0.00116296
       -4.70312188        1.41546953        0.10516051        1.22247792        0.07759928        0.00905388        0.00117795
       -4.69311187        1.40616010        0.10464823        1.21466057        0.07666802        0.00899357        0.00118972
       -4.68310186        1.39319051        0.10387710        1.20367412        0.07552903        0.00891204        0.00119822
       -4.67309185        1.37677344        0.10285397        1.18970657        0.07419897        0.00881050        0.00120343
       -4.66308184        1.35715570        0.10158743        1.17297638        0.07269620        0.00869028        0.00120541
       -4.65307183        1.33461237        0.10008777        1.15372716        0.07104037        0.00855285        0.00120422
       -4.64306182        1.30944062        0.09836694        1.13222192        0.06925202        0.00839974        0.00120000
       -4.63305181        1.28195342        0.09643847        1.10873728        0.06735222        0.00823256        0.00119290
       -4.62304180        1.25247328        0.09431739        1.08355764        0.06536219        0.00805295        0.00118310
       -4.61303179        1.22132637        0.09202017        1.05696982        0.06330296        0.00786259        0.00117082
       -4.60302178        1.18883713        0.08956458        1.02925803        0.06119509        0.00766315        0.00115628
       -4.59301177        1.15532340        0.08696959        1.00069939        0.05905839        0.00745630        0.00113972
       -4.58300176        1.12109226        0.08425516        0.97156022        0.05691178        0.00724372        0.00112138
       -4.57299175        1.08643637        0.08144202        0.94209279        0.05477300        0.00702704        0.00110151
       -4.56298174        1.05163114        0.07855142        0.91253285        0.05265859        0.00680790        0.00108038
       -4.55297173        1.01693236        0.07560486        0.88309774        0.05058364        0.00658789        0.00105822
       -4.54296172        0.98257449        0.07262375        0.85398510        0.04856179        0.00636855        0.00103530
       -4.53295171        0.94876961        0.06962906        0.82537222        0.04660510        0.00615140        0.00101185
       -4.52294170        0.91570692        0.06664102        0.79741596        0.04472397        0.00593785        0.00098812
       -4.51293169        0.88355291        0.06367882        0.77025328        0.04292719        0.00572927        0.00096435
       -4.50292168        0.85245221        0.06076028        0.74400239        0.04122184        0.00552691        0.00094079
       -4.49291167        0.82252915        0.05790169        0.71876448        0.03961340        0.00533191        0.00091766
       -4.48290166        0.79388993        0.05511760        0.69462603        0.03810580        0.00514530        0.00089520
       -4.47289165        0.76662553        0.05242075        0.67166166        0.03670153        0.00496796        0.00087364
       -4.46288164        0.74081509        0.04982203        0.64993739        0.03540182        0.00480064        0.00085321
       -4.45287163        0.71652973        0.04733056        0.62951423        0.03420683        0.00464395        0.00083416
       -4.44286162        0.69383661        0.04495377        0.61045185        0.03311590        0.00449839        0.00081670
       -4.43285161        0.67280302        0.04269761        0.59281224        0.03212777        0.00436431        0.00080109
       -4.42284160        0.65350021        0.04056668        0.57666312        0.03124088        0.00424198        0.00078754
       -4.41283159        0.63600678        0.03856451        0.56208075        0.03045361        0.00413160        0.00077631
       -4.40282158        0.62041138        0.03669375        0.54915220        0.02976450        0.00403329        0.00076764
       -4.39281157        0.60681444        0.03495641        0.53797663        0.02917246        0.00394717        0.00076176
       -4.38280156        0.59532891        0.03335401        0.52866567        0.02867695        0.00387336        0.00075892
       -4.37279155        0.58607978        0.03188772        0.52134267        0.02827802        0.00381202        0.00075935
       -4.36278154        0.57920239        0.03055850        0.51614080        0.02797643        0.00376336        0.00076330
       -4.35277153        0.57483952        0.02936710        0.51320018        0.02777358        0.00372769        0.00077097
       -4.34276152        0.57313740        0.02831404        0.51266391        0.02767145        0.00370541        0.00078259
       -4.33275151        0.57424068        0.02739961        0.51467320        0.02767249        0.00369704        0.00079834
       -4.32274150        0.57828657        0.02662368        0.51936182        0.02777943        0.00370323        0.00081840
       -4.31273149        0.58539833        0.02598561        0.52685001        0.02799509        0.00372473        0.00084289
       -4.30272148        0.59567842        0.02548405        0.53723797        0.02832211        0.00376237        0.00087192
       -4.29271147        0.60920144        0.02511677        0.55059935        0.02876269        0.00381707        0.00090556
       -4.28270146        0.62600714        0.02488044        0.56697479        0.02931834        0.00388977        0.00094379
       -4.27269145        0.64609384        0.02477048        0.58636583        0.02998954        0.00398139        0.00098659
       -4.26268144        0.66941247        0.02478089        0.60872944        0.03077552        0.00409278        0.00103384
       -4.25267143        0.69586142        0.02490415        0.63397334        0.03167393        0.00422464        0.00108535
       -4.24266142        0.72528257        0.02513113        0.66195241        0.03268066        0.00437750        0.00114087
       -4.23265141        0.75745867        0.02545110        0.69246633        0.03378959        0.00455158        0.00120007
       -4.22264140        0.79211230        0.02585178        0.72525875        0.03499243        0.00474680        0.00126254
       -4.21263139        0.82890653        0.02631946        0.76001793        0.03627868        0.00496267        0.00132779
       -4.20262138        0.86744748        0.02683915        0.79637927        0.03763554        0.00519828        0.00139524
       -4.19261137        0.90728885        0.02739487        0.83392945        0.03904803        0.00545223        0.00146426
       -4.18260136        0.94793832        0.02796990        0.87221251        0.04049910        0.00572265        0.00153416
       -4.17259135        0.98886585        0.02854714        0.91073750        0.04196987        0.00600718        0.00160416
       -4.16258134        1.02951369        0.02910945        0.94898775        0.04344002        0.00630298        0.00167349
       -4.15257133        1.06930776        0.02964005        0.98643147        0.04488814        0.00660678        0.00174131
       -4.14256132        1.10767025        0.03012290        1.02253330        0.04629227        0.00691497        0.00180680
       -4.13255131        1.14403290        0.03054304        1.05676663        0.04763046        0.00722363        0.00186914
       -4.12254130        1.17785049        0.03088697        1.08862606        0.04888130        0.00752863        0.00192754
       -4.11253129        1.20861427        0.03114290        1.11763980        0.05002458        0.00782575        0.00198123
       -4.10252128        1.23586458        0.03130106        1.14338134        0.05104187        0.00811077        0.00202954
       -4.09251127        1.25920242        0.03135382        1.16548012        0.05191702        0.00837959        0.00207186
       -4.08250126        1.27829939        0.03129590        1.18363078        0.05263672        0.00862834        0.00210765
       -4.07249125        1.29290572        0.03112434        1.19760056        0.05319084        0.00885346        0.00213651
       -4.06248124        1.30285609        0.03083861        1.20723477        0.05357276        0.00905183        0.00215813
       -4.05247123        1.30807306        0.03044044        1.21245992        0.05377958        0.00922082        0.00217230
       -4.04246122        1.30856799        0.02993380        1.21328472        0.05381215        0.00935838        0.00217895
       -4.03245121        1.30443952        0.02932465        1.20979861        0.05367507        0.00946308        0.00217812
       -4.02244120        1.29586969        0.02862079        1.20216827        0.05337651        0.00953415        0.00216997
       -4.01243119        1.28311779        0.02783160        1.19063198        0.05292797        0.00957149        0.00215476
       -4.00242118        1.26651244        0.02696775        1.17549226        0.05234389        0.00957567        0.00213286
       -3.99241117        1.24644193        0.02604097        1.15710704        0.05164126        0.00954793        0.00210473
       -3.98240116        1.22334337        0.02506370        1.13587953        0.05083911        0.00949010        0.00207093
       -3.97239115        1.19769094        0.02404884        1.11224746        0.04995798        0.00940459        0.00203207
       -3.96238114        1.16998363        0.02300944        1.08667166        0.04901938        0.00929432        0.00198882
       -3.95237113        1.14073283        0.02195843        1.05962467        0.04804519        0.00916262        0.00194193
       -3.94236112        1.11045022        0.02090838        1.03157946        0.04705712        0.00901313        0.00189213
       -3.93235111        1.07963617        0.01987124        1.00299879        0.04607618        0.00884977        0.00184020
       -3.92234110        1.04876902        0.01885814        0.97432528        0.04512217        0.00867653        0.00178690
       -3.91233109        1.01829553        0.01787922        0.94597266        0.04421320        0.00849746        0.00173298
       -3.90232108        0.98862265        0.01694345        0.91831819        0.04336535        0.00831650        0.00167916
       -3.89231107        0.96011089        0.01605858        0.89169658        0.04259224        0.00813738        0.00162611
       -3.88230106        0.93306927        0.01523097        0.86639544        0.04190488        0.00796357        0.00157441
       -3.87229105        0.90775202        0.01446566        0.84265224        0.04131138        0.00779813        0.00152461
       -3.86228104        0.88435697        0.01376627        0.82065293        0.04081695        0.00764367        0.00147714
       -3.85227103        0.86302555        0.01313510        0.80053200        0.04042381        0.00750230        0.00143235
       -3.84226102        0.84384439        0.01257314        0.78237390        0.04013128        0.00737557        0.00139050
       -3.83225101        0.82684809        0.01208023        0.76621570        0.03993594        0.00726448        0.00135174
       -3.82224100        0.81202330        0.01165512        0.75205075        0.03983184        0.00716945        0.00131615
       -3.81223099        0.79931357        0.01129562        0.73983307        0.03981079        0.00709040        0.00128369
       -3.80222098        0.78862485        0.01099876        0.72948236        0.03986271        0.00702672        0.00125429
       -3.79221097        0.77983145        0.01076097        0.72088930        0.03997602        0.00697741        0.00122776
       -3.78220096        0.77278211        0.01057816        0.71392093        0.04013804        0.00694109        0.00120389
       -3.77219095        0.76730612        0.01044597        0.70842612        0.04033549        0.00691612        0.00118242
       -3.76218094        0.76321922        0.01035984        0.70424075        0.04055489        0.00690067        0.00116306
       -3.75217093        0.76032929        0.01031518        0.70119273        0.04078301        0.00689285        0.00114552
       -3.74216092        0.75844168        0.01030743        0.69910668        0.04100733        0.00689075        0.00112950
       -3.73215091        0.75736410        0.01033222        0.69780826        0.04121636        0.00689254        0.00111472
       -3.72214090        0.75691116        0.01038537        0.69712823        0.04140006        0.00689657        0.00110094
       -3.71213089        0.75690842        0.01046297        0.69690608        0.04155004        0.00690140        0.00108793
       -3.70212088        0.75719593        0.01056141        0.69699328        0.04165986        0.00690587        0.00107552
       -3.69211087        0.75763129        0.01067734        0.69725617        0.04172511        0.00690910        0.00106357
       -3.68210086        0.75809206        0.01080770        0.69757828        0.04174352        0.00691057        0.00105200
       -3.67209085        0.75847750        0.01094965        0.69786214        0.04171492        0.00691003        0.00104077
       -3.66208084        0.75870958        0.01110054        0.69803039        0.04164118        0.00690758        0.00102989
       -3.65207083        0.75873307        0.01125787        0.69802621        0.04152604        0.00690355        0.00101940
       -3.64206082        0.75851483        0.01141921        0.69781288        0.04137484        0.00689853        0.00100938
       -3.63205081        0.75804211        0.01158213        0.69737249        0.04119428        0.00689328        0.00099993
       -3.62204080        0.75731999        0.01174422        0.69670388        0.04099204        0.00688868        0.00099117
       -3.61203079        0.75636806        0.01190296        0.69581981        0.04077640        0.00688566        0.00098322
       -3.60202078        0.75521642        0.01205578        0.69474340        0.04055588        0.00688514        0.00097622
       -3.59201077        0.75390128        0.01219999        0.69350425        0.04033879        0.00688796        0.00097028
       -3.58200076        0.75246031        0.01233283        0.69213429        0.04013286        0.00689484        0.00096548
       -3.57199075        0.75092820        0.01245152        0.69066359        0.03994486        0.00690632        0.00096191
       -3.56198074        0.74933245        0.01255328        0.68911659        0.03978030        0.00692268        0.00095960
       -3.55197073        0.74768982        0.01263542        0.68750874        0.03964312        0.00694400        0.00095854
       -3.54196072        0.74600367        0.01269545        0.68584397        0.03953551        0.00697003        0.00095870
       -3.53195071        0.74426223        0.01273115        0.68411306        0.03945773        0.00700029        0.00096000
       -3.52194070        0.74243800        0.01274066        0.68229294        0.03940807        0.00703400        0.00096232
       -3.51193069        0.74048826        0.01272263        0.68034710        0.03938286        0.00707014        0.00096552
       -3.50192068        0.73835662        0.01267623        0.67822697        0.03937655        0.00710746        0.00096941
       -3.49191067        0.73597557        0.01260125        0.67587413        0.03938187        0.00714455        0.00097377
       -3.48190066        0.73326980        0.01249814        0.67322333        0.03939009        0.00717985        0.00097839
       -3.47189065        0.73016010        0.01236803        0.67020598        0.03939135        0.00721172        0.00098301
       -3.46188064        0.72656767        0.01221268        0.66675406        0.03937500        0.00723852        0.00098741
       -3.45187063        0.72241858        0.01203445        0.66280408        0.03933008        0.00725864        0.00099133
       -3.44186062        0.71764817        0.01183626        0.65830105        0.03924574        0.00727057        0.00099455
       -3.43185061        0.71220524        0.01162144        0.65320218        0.03911178        0.00727299        0.00099687
       -3.42184060        0.70605584        0.01139365        0.64748019        0.03891914        0.00726477        0.00099809
       -3.41183059        0.69918651        0.01115677        0.64112615        0.03866040        0.00724511        0.00099809
       -3.40182058        0.69160692        0.01091477        0.63415168        0.03833024        0.00721350        0.00099674
       -3.39181057        0.68335175        0.01067160        0.62659053        0.03792582        0.00716981        0.00099399
       -3.38180056        0.67448181        0.01043109        0.61849939        0.03744717        0.00711433        0.00098984
       -3.37179055        0.66508427        0.01019688        0.60995799        0.03689734        0.00704775        0.00098432
       -3.36178054        0.65527206        0.00997236        0.60106844        0.03628256        0.00697118        0.00097752
