#  aims_uuid : F128D8B5-E5F3-407F-ADF6-DC6AC86BB935                                
#  angular momentum projected density of states for species Mo as calculated by FHI-aims 
# The energy reference for this output is the vacuum level =       0.000000 eV
#      Energy (eV)         total dos     l= 0              l= 1              l= 2              l= 3              l= 4
      -10.00000000        0.97830048        0.03546072        0.15124372        0.77930023        0.01060419        0.00169163
       -9.98998999        1.02187267        0.03960555        0.16027066        0.80905405        0.01115723        0.00178517
       -9.97997998        1.06457450        0.04408603        0.16930437        0.83757683        0.01173020        0.00187706
       -9.96996997        1.10607742        0.04889661        0.17825306        0.86464232        0.01231877        0.00196667
       -9.95995996        1.14606232        0.05402506        0.18702088        0.89004467        0.01291836        0.00205334
       -9.94994995        1.18422141        0.05945171        0.19550926        0.91359972        0.01352426        0.00213645
       -9.93993994        1.22025978        0.06514882        0.20361846        0.93514544        0.01413164        0.00221541
       -9.92992993        1.25389659        0.07108013        0.21124921        0.95454196        0.01473565        0.00228964
       -9.91991992        1.28486650        0.07720069        0.21830454        0.97167122        0.01533144        0.00235862
       -9.90990991        1.31292130        0.08345697        0.22469169        0.98643658        0.01591423        0.00242184
       -9.89989990        1.33783219        0.08978728        0.23032418        0.99876254        0.01647932        0.00247887
       -9.88988989        1.35939256        0.09612260        0.23512383        1.00859467        0.01702214        0.00252932
       -9.87987988        1.37742137        0.10238776        0.23902282        1.01589967        0.01753825        0.00257286
       -9.86986987        1.39176698        0.10850292        0.24196557        1.02066580        0.01802342        0.00260927
       -9.85985986        1.40231114        0.11438547        0.24391046        1.02290320        0.01847365        0.00263835
       -9.84984985        1.40897281        0.11995211        0.24483120        1.02264426        0.01888520        0.00266004
       -9.83983984        1.41171164        0.12512110        0.24471782        1.01994375        0.01925464        0.00267434
       -9.82982983        1.41053062        0.12981469        0.24357716        1.01487851        0.01957892        0.00268134
       -9.81981982        1.40547764        0.13396143        0.24143289        1.00754671        0.01985540        0.00268121
       -9.80980981        1.39664590        0.13749841        0.23832492        0.99806646        0.02008192        0.00267419
       -9.79979980        1.38417289        0.14037323        0.23430828        0.98657397        0.02025679        0.00266062
       -9.78978979        1.36823808        0.14254564        0.22945157        0.97322110        0.02037891        0.00264086
       -9.77977978        1.34905935        0.14398883        0.22383487        0.95817260        0.02044771        0.00261535
       -9.76976977        1.32688845        0.14469011        0.21754746        0.94160310        0.02046324        0.00258454
       -9.75975976        1.30200559        0.14465127        0.21068515        0.92369412        0.02042614        0.00254892
       -9.74974975        1.27471371        0.14388820        0.20334773        0.90463113        0.02033766        0.00250899
       -9.73973974        1.24533241        0.14243025        0.19563625        0.88460100        0.02019966        0.00246525
       -9.72972973        1.21419207        0.14031899        0.18765056        0.86378977        0.02001454        0.00241821
       -9.71971972        1.18162829        0.13760665        0.17948709        0.84238092        0.01978527        0.00236836
       -9.70970971        1.14797670        0.13435429        0.17123689        0.82055405        0.01951528        0.00231618
       -9.69969970        1.11356836        0.13062973        0.16298410        0.79848392        0.01920848        0.00226213
       -9.68968969        1.07872578        0.12650543        0.15480478        0.77633979        0.01886909        0.00220669
       -9.67967968        1.04375935        0.12205639        0.14676613        0.75428489        0.01850166        0.00215029
       -9.66966967        1.00896437        0.11735803        0.13892612        0.73247594        0.01811091        0.00209338
       -9.65965966        0.97461846        0.11248439        0.13133346        0.71106256        0.01770166        0.00203639
       -9.64964965        0.94097929        0.10750641        0.12402781        0.69018659        0.01727873        0.00197976
       -9.63963964        0.90828274        0.10249057        0.11704026        0.66998116        0.01684684        0.00192391
       -9.62962963        0.87674134        0.09749776        0.11039405        0.65056975        0.01641049        0.00186929
       -9.61961962        0.84654307        0.09258244        0.10410531        0.63206507        0.01597392        0.00181632
       -9.60960961        0.81785070        0.08779212        0.09818401        0.61456813        0.01554101        0.00176543
       -9.59959960        0.79080160        0.08316703        0.09263487        0.59816742        0.01511523        0.00171706
       -9.58958959        0.76550817        0.07874009        0.08745839        0.58293844        0.01469962        0.00167163
       -9.57957958        0.74205898        0.07453703        0.08265178        0.56894380        0.01429679        0.00162957
       -9.56956957        0.72052064        0.07057670        0.07820995        0.55623374        0.01390894        0.00159131
       -9.55955956        0.70094037        0.06687144        0.07412645        0.54484732        0.01353788        0.00155727
       -9.54954955        0.68334923        0.06342764        0.07039434        0.53481425        0.01318512        0.00152788
       -9.53953954        0.66776595        0.06024625        0.06700708        0.52615713        0.01285192        0.00150357
       -9.52952953        0.65420109        0.05732343        0.06395928        0.51889425        0.01253936        0.00148477
       -9.51951952        0.64266150        0.05465117        0.06124737        0.51304257        0.01224844        0.00147194
       -9.50950951        0.63315466        0.05221789        0.05887022        0.50862085        0.01198016        0.00146554
       -9.49949950        0.62569290        0.05000912        0.05682956        0.50565261        0.01173555        0.00146607
       -9.48948949        0.62029708        0.04800808        0.05513036        0.50416886        0.01151574        0.00147403
       -9.47947948        0.61699961        0.04619636        0.05378091        0.50421036        0.01132201        0.00148998
       -9.46946947        0.61584664        0.04455447        0.05279285        0.50582914        0.01115573        0.00151446
       -9.45945946        0.61689923        0.04306245        0.05218088        0.50908936        0.01101845        0.00154809
       -9.44944945        0.62023330        0.04170046        0.05196238        0.51406720        0.01091180        0.00159146
       -9.43943944        0.62593845        0.04044925        0.05215672        0.52084981        0.01083747        0.00164520
       -9.42942943        0.63411550        0.03929069        0.05278445        0.52953330        0.01079715        0.00170992
       -9.41941942        0.64487265        0.03820817        0.05386619        0.54021960        0.01079248        0.00178620
       -9.40940941        0.65832057        0.03718701        0.05542149        0.55301255        0.01082493        0.00187459
       -9.39939940        0.67456629        0.03621465        0.05746742        0.56801287        0.01089579        0.00197557
       -9.38938939        0.69370607        0.03528092        0.06001717        0.58531251        0.01100597        0.00208950
       -9.37937938        0.71581762        0.03437808        0.06307857        0.60498833        0.01115602        0.00221661
       -9.36936937        0.74095176        0.03350083        0.06665260        0.62709537        0.01134598        0.00235699
       -9.35935936        0.76912391        0.03264615        0.07073202        0.65165995        0.01157528        0.00251050
       -9.34934935        0.80030586        0.03181316        0.07530020        0.67867298        0.01184273        0.00267679
       -9.33933934        0.83441809        0.03100276        0.08033006        0.70808368        0.01214634        0.00285526
       -9.32932933        0.87132323        0.03021731        0.08578343        0.73979413        0.01248336        0.00304500
       -9.31931932        0.91082095        0.02946019        0.09161068        0.77365504        0.01285019        0.00324486
       -9.30930931        0.95264481        0.02873540        0.09775080        0.80946289        0.01324237        0.00345335
       -9.29929930        0.99646131        0.02804708        0.10413190        0.84695897        0.01365463        0.00366873
       -9.28928929        1.04187141        0.02739914        0.11067219        0.88583023        0.01408089        0.00388896
       -9.27927928        1.08841476        0.02679479        0.11728139        0.92571238        0.01451442        0.00411178
       -9.26926927        1.13557648        0.02623628        0.12386260        0.96619497        0.01494790        0.00433473
       -9.25925926        1.18279649        0.02572459        0.13031452        1.00682856        0.01537364        0.00455517
       -9.24924925        1.22948109        0.02525926        0.13653396        1.04713369        0.01578378        0.00477040
       -9.23923924        1.27501641        0.02483828        0.14241863        1.08661134        0.01617049        0.00497767
       -9.22922923        1.31878311        0.02445806        0.14786994        1.12475458        0.01652626        0.00517427
       -9.21921922        1.36017194        0.02411351        0.15279586        1.16106084        0.01684412        0.00535762
       -9.20920921        1.39859939        0.02379817        0.15711362        1.19504442        0.01711790        0.00552529
       -9.19919920        1.43352283        0.02350446        0.16075213        1.22624868        0.01734246        0.00567510
       -9.18918919        1.46445460        0.02322394        0.16365409        1.25425751        0.01751389        0.00580517
       -9.17917918        1.49097444        0.02294762        0.16577759        1.27870565        0.01762960        0.00591397
       -9.16916917        1.51273985        0.02266636        0.16709725        1.29928741        0.01768849        0.00600034
       -9.15915916        1.52949416        0.02237123        0.16760469        1.31576379        0.01769094        0.00606351
       -9.14914915        1.54107183        0.02205387        0.16730857        1.32796749        0.01763874        0.00610316
       -9.13913914        1.54740126        0.02170690        0.16623389        1.33580604        0.01753507        0.00611935
       -9.12912913        1.54850475        0.02132422        0.16442090        1.33926276        0.01738431        0.00611256
       -9.11911912        1.54449605        0.02090128        0.16192344        1.33839587        0.01719182        0.00608364
       -9.10910911        1.53557541        0.02043532        0.15880695        1.33333558        0.01696378        0.00603378
       -9.09909910        1.52202259        0.01992551        0.15514622        1.32427957        0.01670685        0.00596445
       -9.08908909        1.50418792        0.01937297        0.15102284        1.31148675        0.01642797        0.00587738
       -9.07907908        1.48248183        0.01878079        0.14652271        1.29526976        0.01613407        0.00577450
       -9.06906907        1.45736316        0.01815386        0.14173349        1.27598613        0.01583182        0.00565787
       -9.05905906        1.42932650        0.01749868        0.13674219        1.25402858        0.01552743        0.00552961
       -9.04904905        1.39888893        0.01682310        0.13163298        1.22981451        0.01522644        0.00539190
       -9.03903904        1.36657665        0.01613594        0.12648523        1.20377502        0.01493361        0.00524685
       -9.02902903        1.33291162        0.01544663        0.12137189        1.17634379        0.01465278        0.00509653
       -9.01901902        1.29839884        0.01476481        0.11635821        1.14794611        0.01438685        0.00494287
       -9.00900901        1.26351457        0.01409990        0.11150083        1.11898847        0.01413774        0.00478764
       -8.99899900        1.22869583        0.01346071        0.10684718        1.08984903        0.01390647        0.00463244
       -8.98898899        1.19433167        0.01285511        0.10243526        1.06086943        0.01369320        0.00447867
       -8.97897898        1.16075649        0.01228974        0.09829375        1.03234814        0.01349734        0.00432751
       -8.96896897        1.12824562        0.01176977        0.09444232        1.00453591        0.01331769        0.00417993
       -8.95895896        1.09701340        0.01129877        0.09089224        0.97763310        0.01315259        0.00403669
       -8.94894895        1.06721375        0.01087866        0.08764713        0.95178949        0.01300010        0.00389836
       -8.93893894        1.03894314        0.01050972        0.08470390        0.92710606        0.01285814        0.00376533
       -8.92892893        1.01224577        0.01019068        0.08205371        0.90363889        0.01272467        0.00363783
       -8.91891892        0.98712056        0.00991892        0.07968303        0.88140482        0.01259783        0.00351596
       -8.90890891        0.96352951        0.00969063        0.07757468        0.86038835        0.01247612        0.00339972
       -8.89889890        0.94140692        0.00950110        0.07570885        0.84054948        0.01235844        0.00328905
       -8.88888889        0.92066885        0.00934495        0.07406407        0.82183179        0.01224422        0.00318381
       -8.87887888        0.90122221        0.00921642        0.07261805        0.80417043        0.01213345        0.00308386
       -8.86886887        0.88297317        0.00910964        0.07134848        0.78749934        0.01202668        0.00298903
       -8.85885886        0.86583413        0.00901884        0.07023367        0.77175742        0.01192505        0.00289915
       -8.84884885        0.84972926        0.00893857        0.06925312        0.75689332        0.01183016        0.00281409
       -8.83883884        0.83459817        0.00886387        0.06838789        0.74286866        0.01174403        0.00273372
       -8.82882883        0.82039782        0.00879038        0.06762093        0.72965957        0.01166899        0.00265795
       -8.81881882        0.80710265        0.00871445        0.06693724        0.71725677        0.01160751        0.00258669
       -8.80880881        0.79470327        0.00863314        0.06632395        0.70566419        0.01156208        0.00251991
       -8.79879880        0.78320372        0.00854426        0.06577026        0.69489655        0.01153508        0.00245757
       -8.78878879        0.77261799        0.00844632        0.06526738        0.68497605        0.01152857        0.00239967
       -8.77877878        0.76296586        0.00833849        0.06480831        0.67592866        0.01154419        0.00234621
       -8.76876877        0.75426854        0.00822050        0.06438758        0.66778023        0.01158302        0.00229721
       -8.75875876        0.74654450        0.00809257        0.06400102        0.66055275        0.01164546        0.00225270
       -8.74874875        0.73980555        0.00795530        0.06364542        0.65426095        0.01173118        0.00221270
       -8.73873874        0.73405362        0.00780958        0.06331820        0.64890958        0.01183903        0.00217724
       -8.72872873        0.72927819        0.00765650        0.06301710        0.64449120        0.01196707        0.00214633
       -8.71871872        0.72545456        0.00749723        0.06273990        0.64098489        0.01211257        0.00211997
       -8.70870871        0.72254286        0.00733298        0.06248410        0.63835556        0.01227206        0.00209815
       -8.69869870        0.72048794        0.00716491        0.06224673        0.63655401        0.01244146        0.00208084
       -8.68868869        0.71921977        0.00699409        0.06202406        0.63551753        0.01261615        0.00206794
       -8.67867868        0.71865463        0.00682145        0.06181155        0.63517108        0.01279119        0.00205935
       -8.66866867        0.71869654        0.00664779        0.06160365        0.63542875        0.01296144        0.00205490
       -8.65865866        0.71923918        0.00647371        0.06139379        0.63619551        0.01312178        0.00205439
       -8.64864865        0.72016796        0.00629968        0.06117437        0.63736909        0.01326727        0.00205754
       -8.63863864        0.72136215        0.00612600        0.06093679        0.63884194        0.01339339        0.00206403
       -8.62862863        0.72269709        0.00595283        0.06067160        0.64050307        0.01349612        0.00207347
       -8.61861862        0.72404635        0.00578024        0.06036861        0.64223988        0.01357219        0.00208543
       -8.60860861        0.72528375        0.00560821        0.06001717        0.64393985        0.01361911        0.00209942
       -8.59859860        0.72628539        0.00543668        0.05960637        0.64549212        0.01363529        0.00211493
       -8.58858859        0.72693155        0.00526558        0.05912543        0.64678905        0.01362009        0.00213139
       -8.57857858        0.72710861        0.00509486        0.05856408        0.64772763        0.01357379        0.00214825
       -8.56856857        0.72671104        0.00492450        0.05791293        0.64821112        0.01349756        0.00216493
       -8.55855856        0.72564346        0.00475459        0.05716396        0.64815065        0.01339339        0.00218087
       -8.54854855        0.72382288        0.00458529        0.05631099        0.64746706        0.01326400        0.00219554
       -8.53853854        0.72118115        0.00441690        0.05535016        0.64609294        0.01311269        0.00220847
       -8.52852853        0.71766762        0.00424986        0.05428038        0.64397496        0.01294322        0.00221921
       -8.51851852        0.71325192        0.00408474        0.05310375        0.64107633        0.01275967        0.00222743
       -8.50850851        0.70792686        0.00392228        0.05182597        0.63737945        0.01256633        0.00223283
       -8.49849850        0.70171122        0.00376336        0.05045655        0.63288852        0.01236753        0.00223526
       -8.48848849        0.69465233        0.00360901        0.04900903        0.62763208        0.01216758        0.00223462
       -8.47847848        0.68682813        0.00346043        0.04750102        0.62166505        0.01197066        0.00223096
       -8.46846847        0.67834850        0.00331891        0.04595410        0.61507029        0.01178078        0.00222442
