#  aims_uuid : F128D8B5-E5F3-407F-ADF6-DC6AC86BB935                                
#  angular momentum projected density of states for species S as calculated by FHI-aims 
# The energy reference for this output is the vacuum level =       0.000000 eV
#      Energy (eV)         total dos     l= 0              l= 1              l= 2              l= 3              l= 4
      -10.00000000        0.90952939        0.07099674        0.78172198        0.05025542        0.00594258        0.00061267
       -9.98998999        0.95902390        0.07590016        0.82321679        0.05300041        0.00626926        0.00063728
       -9.97997998        1.00860794        0.08081410        0.86483419        0.05570513        0.00659113        0.00066339
       -9.96996997        1.05791820        0.08570335        0.90627045        0.05834772        0.00690579        0.00069088
       -9.95995996        1.10658314        0.09053156        0.94721457        0.06090644        0.00721093        0.00071964
       -9.94994995        1.15422549        0.09526147        0.98735032        0.06335991        0.00750430        0.00074950
       -9.93993994        1.20046452        0.09985514        1.02635812        0.06568723        0.00778373        0.00078029
       -9.92992993        1.24491832        0.10427431        1.06391677        0.06786821        0.00804721        0.00081182
       -9.91991992        1.28720636        0.10848068        1.09970545        0.06988359        0.00829280        0.00084384
       -9.90990991        1.32695255        0.11243639        1.13340611        0.07171522        0.00851871        0.00087611
       -9.89989990        1.36378902        0.11610455        1.16470644        0.07334639        0.00872332        0.00090832
       -9.88988989        1.39736082        0.11944981        1.19330363        0.07476205        0.00890516        0.00094017
       -9.87987988        1.42733142        0.12243907        1.21890892        0.07594916        0.00906297        0.00097130
       -9.86986987        1.45338902        0.12504215        1.24125279        0.07689700        0.00919571        0.00100137
       -9.85985986        1.47525341        0.12723256        1.26009088        0.07759740        0.00930257        0.00102999
       -9.84984985        1.49268306        0.12898811        1.27521005        0.07804506        0.00938304        0.00105680
       -9.83983984        1.50548211        0.13029160        1.28643453        0.07823767        0.00943687        0.00108144
       -9.82982983        1.51350680        0.13113124        1.29363179        0.07817611        0.00946411        0.00110355
       -9.81981982        1.51667097        0.13150104        1.29671757        0.07786439        0.00946513        0.00112283
       -9.80980981        1.51495022        0.13140097        1.29566002        0.07730966        0.00944057        0.00113900
       -9.79979980        1.50838460        0.13083692        1.29048249        0.07652201        0.00939133        0.00115184
       -9.78978979        1.49707946        0.12982054        1.28126490        0.07551423        0.00931861        0.00116119
       -9.77977978        1.48120451        0.12836880        1.26814346        0.07430153        0.00922377        0.00116695
       -9.76976977        1.46099106        0.12650355        1.25130890        0.07290115        0.00910839        0.00116908
       -9.75975976        1.43672765        0.12425081        1.23100309        0.07133195        0.00897417        0.00116763
       -9.74974975        1.40875409        0.12164010        1.20751430        0.06961405        0.00882294        0.00116270
       -9.73973974        1.37745438        0.11870368        1.18117130        0.06776835        0.00865657        0.00115448
       -9.72972973        1.34324860        0.11547581        1.15233641        0.06581622        0.00847698        0.00114318
       -9.71971972        1.30658414        0.11199203        1.12139782        0.06377908        0.00828610        0.00112911
       -9.70970971        1.26792652        0.10828855        1.08876140        0.06167816        0.00808582        0.00111259
       -9.69969970        1.22775005        0.10440165        1.05484225        0.05953414        0.00787803        0.00109398
       -9.68968969        1.18652858        0.10036721        1.02005614        0.05736700        0.00766456        0.00107368
       -9.67967968        1.14472654        0.09622033        0.98481122        0.05519575        0.00744716        0.00105208
       -9.66966967        1.10279044        0.09199500        0.94949997        0.05303830        0.00722757        0.00102960
       -9.65965966        1.06114112        0.08772385        0.91449195        0.05091129        0.00700742        0.00100661
       -9.64964965        1.02016688        0.08343795        0.88012719        0.04882996        0.00678827        0.00098351
       -9.63963964        0.98021768        0.07916664        0.84671075        0.04680802        0.00657162        0.00096064
       -9.62962963        0.94160065        0.07493742        0.81450844        0.04485761        0.00635885        0.00093833
       -9.61961962        0.90457704        0.07077578        0.78374399        0.04298915        0.00615126        0.00091685
       -9.60960961        0.86936081        0.06670515        0.75459779        0.04121137        0.00595004        0.00089647
       -9.59959960        0.83611885        0.06274675        0.72720723        0.03953123        0.00575624        0.00087740
       -9.58958959        0.80497298        0.05891956        0.70166880        0.03795400        0.00557080        0.00085981
       -9.57957958        0.77600365        0.05524024        0.67804168        0.03648334        0.00539454        0.00084385
       -9.56956957        0.74925512        0.05172311        0.65635286        0.03512136        0.00522812        0.00082965
       -9.55955956        0.72474197        0.04838016        0.63660354        0.03386885        0.00507211        0.00081732
       -9.54954955        0.70245667        0.04522109        0.61877629        0.03272543        0.00492693        0.00080694
       -9.53953954        0.68237772        0.04225344        0.60284290        0.03168985        0.00479292        0.00079860
       -9.52952953        0.66447796        0.03948269        0.58877230        0.03076023        0.00467033        0.00079241
       -9.51951952        0.64873274        0.03691242        0.57653816        0.02993434        0.00455935        0.00078847
       -9.50950951        0.63512733        0.03454454        0.56612583        0.02920991        0.00446014        0.00078690
       -9.49949950        0.62366328        0.03237949        0.55753819        0.02858489        0.00437286        0.00078785
       -9.48948949        0.61436338        0.03041641        0.55080009        0.02805770        0.00429771        0.00079146
       -9.47947948        0.60727500        0.02865342        0.54596125        0.02762746        0.00423494        0.00079793
       -9.46946947        0.60247155        0.02708773        0.54309735        0.02729412        0.00418490        0.00080745
       -9.45945946        0.60005216        0.02571584        0.54230943        0.02705860        0.00414805        0.00082024
       -9.44944945        0.60013941        0.02453362        0.54372145        0.02692283        0.00412499        0.00083652
       -9.43943944        0.60287534        0.02353639        0.54747630        0.02688968        0.00411647        0.00085649
       -9.42942943        0.60841589        0.02271893        0.55373026        0.02696289        0.00412342        0.00088039
       -9.41941942        0.61692387        0.02207546        0.56264626        0.02714688        0.00414688        0.00090839
       -9.40940941        0.62856082        0.02159958        0.57438603        0.02744649        0.00418805        0.00094066
       -9.39939940        0.64347790        0.02128418        0.58910145        0.02786669        0.00424824        0.00097733
       -9.38938939        0.66180617        0.02112135        0.60692537        0.02841216        0.00432880        0.00101848
       -9.37937938        0.68364647        0.02110223        0.62796208        0.02908695        0.00443108        0.00106412
       -9.36936937        0.70905924        0.02121694        0.65227773        0.02989395        0.00455640        0.00111421
       -9.35935936        0.73805456        0.02145448        0.67989104        0.03083454        0.00470588        0.00116862
       -9.34934935        0.77058289        0.02180265        0.71076456        0.03190806        0.00488047        0.00122714
       -9.33933934        0.80652669        0.02224809        0.74479685        0.03311151        0.00508076        0.00128948
       -9.32932933        0.84569360        0.02277625        0.78181601        0.03443915        0.00530694        0.00135524
       -9.31931932        0.88781140        0.02337152        0.82157496        0.03588228        0.00555871        0.00142394
       -9.30930931        0.93252539        0.02401734        0.86374878        0.03742907        0.00583519        0.00149501
       -9.29929930        0.97939841        0.02469643        0.90793470        0.03906460        0.00613491        0.00156778
       -9.28928929        1.02791405        0.02539103        0.95365491        0.04077089        0.00645570        0.00164151
       -9.27927928        1.07748309        0.02608321        1.00036253        0.04252722        0.00679474        0.00171539
       -9.26926927        1.12745346        0.02675519        1.04745071        0.04431045        0.00714854        0.00178856
       -9.25925926        1.17712339        0.02738975        1.09426494        0.04609559        0.00751299        0.00186011
       -9.24924925        1.22575770        0.02797055        1.14011821        0.04785637        0.00788344        0.00192913
       -9.23923924        1.27260656        0.02848257        1.18430856        0.04956594        0.00825478        0.00199471
       -9.22922923        1.31692602        0.02891243        1.22613837        0.05119767        0.00862160        0.00205595
       -9.21921922        1.35799957        0.02924873        1.26493464        0.05272586        0.00897830        0.00211204
       -9.20920921        1.39515953        0.02948231        1.30006921        0.05412654        0.00931926        0.00216220
       -9.19919920        1.42780743        0.02960646        1.33097800        0.05537816        0.00963903        0.00220578
       -9.18918919        1.45543229        0.02961708        1.35717833        0.05646223        0.00993243        0.00224222
       -9.17917918        1.47762576        0.02951268        1.37828331        0.05736384        0.01019482        0.00227110
       -9.16916917        1.49409349        0.02929439        1.39401279        0.05807205        0.01042213        0.00229212
       -9.15915916        1.50466221        0.02896580        1.40420004        0.05858014        0.01061109        0.00230514
       -9.14914915        1.50928206        0.02853278        1.40879417        0.05888571        0.01075923        0.00231016
       -9.13913914        1.50802431        0.02800323        1.40785808        0.05899065        0.01086505        0.00230731
       -9.12912913        1.50107472        0.02738671        1.40156229        0.05890089        0.01092797        0.00229685
       -9.11911912        1.48872294        0.02669415        1.39017508        0.05862613        0.01094838        0.00227919
       -9.10910911        1.47134880        0.02593741        1.37404957        0.05817941        0.01092759        0.00225482
       -9.09909910        1.44940618        0.02512892        1.35360868        0.05757651        0.01086775        0.00222432
       -9.08908909        1.42340551        0.02428134        1.32932860        0.05683544        0.01077178        0.00218836
       -9.07907908        1.39389561        0.02340717        1.30172185        0.05597574        0.01064321        0.00214764
       -9.06906907        1.36144595        0.02251849        1.27132063        0.05501785        0.01048609        0.00210290
       -9.05905906        1.32662990        0.02162671        1.23866108        0.05398245        0.01030478        0.00205489
       -9.04904905        1.29000957        0.02074230        1.20426926        0.05288985        0.01010383        0.00200434
       -9.03903904        1.25212277        0.01987475        1.16864888        0.05175938        0.00988780        0.00195197
       -9.02902903        1.21347227        0.01903235        1.13227144        0.05060892        0.00966113        0.00189844
       -9.01901902        1.17451754        0.01822223        1.09556852        0.04945445        0.00942797        0.00184436
       -9.00900901        1.13566885        0.01745027        1.05892644        0.04830973        0.00919213        0.00179029
       -8.99899900        1.09728383        0.01672117        1.02268303        0.04718606        0.00895690        0.00173667
       -8.98898899        1.05966601        0.01603843        0.98712641        0.04609220        0.00872505        0.00168392
       -8.97897898        1.02306540        0.01540446        0.95249547        0.04503437        0.00849879        0.00163233
       -8.96896897        0.98768063        0.01482060        0.91898184        0.04401635        0.00827972        0.00158212
       -8.95895896        0.95366245        0.01428726        0.88673308        0.04303972        0.00806892        0.00153346
       -8.94894895        0.92111836        0.01380392        0.85585685        0.04210421        0.00786695        0.00148644
       -8.93893894        0.89011803        0.01336933        0.82642569        0.04120802        0.00767391        0.00144106
       -8.92892893        0.86069919        0.01298151        0.79848241        0.04034836        0.00748958        0.00139733
       -8.91891892        0.83287392        0.01263789        0.77204553        0.03952184        0.00731347        0.00135519
       -8.90890891        0.80663477        0.01233545        0.74711482        0.03872501        0.00714493        0.00131456
       -8.89889890        0.78196075        0.01207077        0.72367658        0.03795479        0.00698325        0.00127536
       -8.88888889        0.75882273        0.01184016        0.70170848        0.03720882        0.00682775        0.00123751
       -8.87887888        0.73718818        0.01163980        0.68118369        0.03648586        0.00667788        0.00120095
       -8.86886887        0.71702495        0.01146580        0.66207435        0.03578592        0.00653324        0.00116563
       -8.85885886        0.69830402        0.01131438        0.64435403        0.03511045        0.00639363        0.00113153
       -8.84884885        0.68100112        0.01118187        0.62799920        0.03446229        0.00625910        0.00109866
       -8.83883884        0.66509721        0.01106488        0.61298976        0.03384560        0.00612992        0.00106705
       -8.82882883        0.65057786        0.01096034        0.59930856        0.03326562        0.00600658        0.00103677
       -8.81881882        0.63743165        0.01086553        0.58694008        0.03272842        0.00588972        0.00100790
       -8.80880881        0.62564778        0.01077813        0.57586844        0.03224054        0.00578014        0.00098054
       -8.79879880        0.61521316        0.01069623        0.56607485        0.03180860        0.00567869        0.00095480
       -8.78878879        0.60610911        0.01061829        0.55753491        0.03143890        0.00558623        0.00093079
       -8.77877878        0.59830815        0.01054312        0.55021577        0.03113705        0.00550359        0.00090861
       -8.76876877        0.59177098        0.01046983        0.54407369        0.03090763        0.00543148        0.00088834
       -8.75875876        0.58644402        0.01039770        0.53905193        0.03075387        0.00537047        0.00087005
       -8.74874875        0.58225768        0.01032614        0.53507941        0.03067741        0.00532093        0.00085379
       -8.73873874        0.57912548        0.01025460        0.53207011        0.03067819        0.00528302        0.00083956
       -8.72872873        0.57694424        0.01018246        0.52992343        0.03075434        0.00525667        0.00082734
       -8.71871872        0.57559520        0.01010894        0.52852541        0.03090220        0.00524155        0.00081710
       -8.70870871        0.57494612        0.01003307        0.52775080        0.03111635        0.00523714        0.00080876
       -8.69869870        0.57485427        0.00995365        0.52746591        0.03138984        0.00524266        0.00080221
       -8.68868869        0.57516994        0.00986920        0.52753194        0.03171428        0.00525719        0.00079733
       -8.67867868        0.57574052        0.00977802        0.52780879        0.03208013        0.00527961        0.00079397
       -8.66866867        0.57641467        0.00967821        0.52815882        0.03247696        0.00530871        0.00079198
       -8.65865866        0.57704638        0.00956774        0.52845058        0.03289370        0.00534318        0.00079118
       -8.64864865        0.57749874        0.00944458        0.52856217        0.03331892        0.00538164        0.00079142
       -8.63863864        0.57764715        0.00930678        0.52838399        0.03374115        0.00542273        0.00079249
       -8.62862863        0.57738178        0.00915260        0.52782082        0.03414904        0.00546507        0.00079425
       -8.61861862        0.57660928        0.00898062        0.52679312        0.03453168        0.00550736        0.00079651
       -8.60860861        0.57525358        0.00878988        0.52523750        0.03487876        0.00554834        0.00079911
       -8.59859860        0.57325595        0.00857994        0.52310652        0.03518074        0.00558685        0.00080191
       -8.58858859        0.57057435        0.00835097        0.52036778        0.03542902        0.00562182        0.00080474
       -8.57857858        0.56718230        0.00810379        0.51700263        0.03561606        0.00565233        0.00080749
       -8.56856857        0.56306742        0.00783983        0.51300459        0.03573544        0.00567753        0.00081001
       -8.55855856        0.55822983        0.00756116        0.50837773        0.03578198        0.00569675        0.00081220
       -8.54854855        0.55268077        0.00727037        0.50313524        0.03575178        0.00570941        0.00081396
       -8.53853854        0.54644141        0.00697053        0.49729830        0.03564228        0.00571511        0.00081518
       -8.52852853        0.53954219        0.00666505        0.49089543        0.03545234        0.00571358        0.00081579
       -8.51851852        0.53202259        0.00635754        0.48396237        0.03518226        0.00570468        0.00081574
       -8.50850851        0.52393149        0.00605174        0.47654243        0.03483389        0.00568846        0.00081497
       -8.49849850        0.51532795        0.00575136        0.46868737        0.03441061        0.00566514        0.00081347
       -8.48848849        0.50628232        0.00545996        0.46045854        0.03391747        0.00563510        0.00081125
       -8.47847848        0.49687757        0.00518091        0.45192823        0.03336116        0.00559892        0.00080835
       -8.46846847        0.48721053        0.00491728        0.44318094        0.03275008        0.00555739        0.00080484
