#  aims_uuid : F128D8B5-E5F3-407F-ADF6-DC6AC86BB935                                
#  angular momentum projected density of states for species S as calculated by FHI-aims 
# The energy reference for this output is the vacuum level =       0.000000 eV
#      Energy (eV)         total dos     l= 0              l= 1              l= 2              l= 3              l= 4
      -10.00000000        1.03774199        0.07816445        0.89712437        0.05566891        0.00621579        0.00056847
       -9.98998999        1.09231449        0.08326597        0.94323790        0.05868678        0.00652513        0.00059871
       -9.97997998        1.14662941        0.08835313        0.98919129        0.06162869        0.00682561        0.00063068
       -9.96996997        1.20021195        0.09338231        1.03457751        0.06447248        0.00711541        0.00066424
       -9.95995996        1.25256832        0.09830686        1.07897288        0.06719648        0.00739288        0.00069922
       -9.94994995        1.30319011        0.10307761        1.12194101        0.06977954        0.00765651        0.00073544
       -9.93993994        1.35155963        0.10764340        1.16303755        0.07220109        0.00790493        0.00077266
       -9.92992993        1.39715662        0.11195206        1.20181592        0.07444116        0.00813686        0.00081062
       -9.91991992        1.43946645        0.11595146        1.23783430        0.07648056        0.00835111        0.00084902
       -9.90990991        1.47798980        0.11959084        1.27066385        0.07830103        0.00854653        0.00088755
       -9.89989990        1.51225379        0.12282234        1.29989806        0.07988549        0.00872206        0.00092585
       -9.88988989        1.54182415        0.12560253        1.32516300        0.08121844        0.00887666        0.00096353
       -9.87987988        1.56631786        0.12789403        1.34612800        0.08228628        0.00900937        0.00100018
       -9.86986987        1.58541560        0.12966692        1.36251618        0.08307778        0.00911932        0.00103539
       -9.85985986        1.59887326        0.13090011        1.37411422        0.08358447        0.00920575        0.00106871
       -9.84984985        1.60653164        0.13158220        1.38078067        0.08380103        0.00926804        0.00109972
       -9.83983984        1.60832355        0.13171210        1.38245211        0.08372560        0.00930574        0.00112800
       -9.82982983        1.60427788        0.13129919        1.37914684        0.08336002        0.00931866        0.00115317
       -9.81981982        1.59451997        0.13036295        1.37096544        0.08270992        0.00930680        0.00117487
       -9.80980981        1.57926846        0.12893220        1.35808835        0.08178466        0.00927045        0.00119280
       -9.79979980        1.55882838        0.12704390        1.34077035        0.08059723        0.00921018        0.00120672
       -9.78978979        1.53358116        0.12474165        1.31933232        0.07916389        0.00912685        0.00121644
       -9.77977978        1.50397199        0.12207392        1.29415082        0.07750381        0.00902156        0.00122189
       -9.76976977        1.47049541        0.11909214        1.26564597        0.07563859        0.00889569        0.00122302
       -9.75975976        1.43367987        0.11584890        1.23426851        0.07359173        0.00875084        0.00121990
       -9.74974975        1.39407227        0.11239606        1.20048664        0.07138806        0.00858883        0.00121267
       -9.73973974        1.35222316        0.10878330        1.16477343        0.06905326        0.00841162        0.00120155
       -9.72972973        1.30867331        0.10505672        1.12759522        0.06661326        0.00822130        0.00118682
       -9.71971972        1.26394229        0.10125795        1.08940159        0.06409388        0.00802006        0.00116882
       -9.70970971        1.21851907        0.09742352        1.05061714        0.06152034        0.00781012        0.00114795
       -9.69969970        1.17285506        0.09358455        1.01163510        0.05891703        0.00759372        0.00112466
       -9.68968969        1.12735931        0.08976683        0.97281286        0.05630714        0.00737306        0.00109942
       -9.67967968        1.08239587        0.08599108        0.93446926        0.05371252        0.00715029        0.00107271
       -9.66966967        1.03828282        0.08227344        0.89688338        0.05115350        0.00692748        0.00104503
       -9.65965966        0.99529286        0.07862612        0.86029461        0.04864872        0.00670655        0.00101687
       -9.64964965        0.95365506        0.07505809        0.82490388        0.04621511        0.00648929        0.00098869
       -9.63963964        0.91355745        0.07157576        0.79087564        0.04386778        0.00627732        0.00096095
       -9.62962963        0.87515038        0.06818367        0.75834062        0.04161995        0.00607208        0.00093406
       -9.61961962        0.83855042        0.06488513        0.72739911        0.03948298        0.00587479        0.00090841
       -9.60960961        0.80384468        0.06168269        0.69812483        0.03746634        0.00568649        0.00088432
       -9.59959960        0.77109552        0.05857859        0.67056918        0.03557766        0.00550800        0.00086209
       -9.58958959        0.74034566        0.05557506        0.64476588        0.03382279        0.00533995        0.00084197
       -9.57957958        0.71162351        0.05267459        0.62073605        0.03220593        0.00518276        0.00082418
       -9.56956957        0.68494871        0.04988001        0.59849332        0.03072977        0.00503673        0.00080889
       -9.55955956        0.66033770        0.04719463        0.57804916        0.02939566        0.00490200        0.00079625
       -9.54954955        0.63780914        0.04462223        0.55941804        0.02820389        0.00477860        0.00078638
       -9.53953954        0.61738899        0.04216705        0.54262214        0.02715387        0.00466653        0.00077939
       -9.52952953        0.59911494        0.03983372        0.52769566        0.02624444        0.00456574        0.00077538
       -9.51951952        0.58304002        0.03762717        0.51468810        0.02547408        0.00447621        0.00077446
       -9.50950951        0.56923512        0.03555254        0.50366670        0.02484120        0.00439796        0.00077672
       -9.49949950        0.55779032        0.03361504        0.49471758        0.02434431        0.00433111        0.00078228
       -9.48948949        0.54881492        0.03181984        0.48794570        0.02398224        0.00427587        0.00079127
       -9.47947948        0.54243603        0.03017192        0.48347349        0.02375421        0.00423260        0.00080381
       -9.46946947        0.53879601        0.02867587        0.48143829        0.02365995        0.00420183        0.00082007
       -9.45945946        0.53804860        0.02733585        0.48198868        0.02369966        0.00418421        0.00084021
       -9.44944945        0.54035414        0.02615531        0.48527986        0.02387402        0.00418056        0.00086439
       -9.43943944        0.54587388        0.02513693        0.49146828        0.02418402        0.00419186        0.00089278
       -9.42942943        0.55476373        0.02428247        0.50070568        0.02463081        0.00421921        0.00092556
       -9.41941942        0.56716755        0.02359257        0.51313275        0.02521554        0.00426383        0.00096287
       -9.40940941        0.58321011        0.02306666        0.52887261        0.02593902        0.00432699        0.00100483
       -9.39939940        0.60299001        0.02270283        0.54802409        0.02680153        0.00441001        0.00105155
       -9.38938939        0.62657254        0.02249769        0.57065514        0.02780242        0.00451422        0.00110308
       -9.37937938        0.65398258        0.02244626        0.59679620        0.02893989        0.00464084        0.00115940
       -9.36936937        0.68519784        0.02254188        0.62643392        0.03021061        0.00479098        0.00122045
       -9.35935936        0.72014225        0.02277613        0.65950503        0.03160948        0.00496554        0.00128608
       -9.34934935        0.75868005        0.02313873        0.69589079        0.03312933        0.00516517        0.00135604
       -9.33933934        0.80061048        0.02361757        0.73541202        0.03476075        0.00539013        0.00143000
       -9.32932933        0.84566356        0.02419872        0.77782508        0.03649193        0.00564030        0.00150752
       -9.31931932        0.89349713        0.02486646        0.82281901        0.03830859        0.00591504        0.00158804
       -9.30930931        0.94369574        0.02560344        0.87001425        0.04019399        0.00621318        0.00167088
       -9.29929930        0.99577142        0.02639087        0.91896322        0.04212909        0.00653296        0.00175529
       -9.28928929        1.04916694        0.02720876        0.96915308        0.04409276        0.00687198        0.00184036
       -9.27927928        1.10326174        0.02803628        1.02001099        0.04606209        0.00722725        0.00192512
       -9.26926927        1.15738059        0.02885217        1.07091191        0.04801282        0.00759516        0.00200853
       -9.25925926        1.21080508        0.02963513        1.12118911        0.04991985        0.00797154        0.00208947
       -9.24924925        1.26278784        0.03036435        1.17014716        0.05175780        0.00835173        0.00216680
       -9.23923924        1.31256891        0.03102004        1.21707720        0.05350163        0.00873068        0.00223936
       -9.22922923        1.35939414        0.03158387        1.26127388        0.05512727        0.00910308        0.00230605
       -9.21921922        1.40253455        0.03203952        1.30205360        0.05661219        0.00946345        0.00236579
       -9.20920921        1.44130619        0.03237310        1.33877309        0.05793605        0.00980635        0.00241761
       -9.19919920        1.47508945        0.03257350        1.37084765        0.05908119        0.01012646        0.00246065
       -9.18918919        1.50334703        0.03263269        1.39776830        0.06003303        0.01041881        0.00249421
       -9.17917918        1.52563972        0.03254589        1.41911675        0.06078049        0.01067887        0.00251774
       -9.16916917        1.54163925        0.03231165        1.43457788        0.06131613        0.01090270        0.00253088
       -9.15915916        1.55113754        0.03193183        1.44394879        0.06163635        0.01108710        0.00253347
       -9.14914915        1.55405208        0.03141142        1.44714415        0.06174134        0.01122962        0.00252555
       -9.13913914        1.55042702        0.03075830        1.44419768        0.06163498        0.01132871        0.00250735
       -9.12912913        1.54043021        0.02998294        1.43525958        0.06132468        0.01138370        0.00247931
       -9.11911912        1.52434610        0.02909799        1.42059024        0.06082104        0.01139481        0.00244202
       -9.10910911        1.50256520        0.02811783        1.40055043        0.06013755        0.01136315        0.00239624
       -9.09909910        1.47557040        0.02705813        1.37558864        0.05929015        0.01129062        0.00234286
       -9.08908909        1.44392096        0.02593535        1.34622609        0.05829678        0.01117987        0.00228287
       -9.07907908        1.40823481        0.02476630        1.31304006        0.05717690        0.01103419        0.00221734
       -9.06906907        1.36916993        0.02356771        1.27664641        0.05595105        0.01085738        0.00214738
       -9.05905906        1.32740567        0.02235582        1.23768185        0.05464027        0.01065361        0.00207413
       -9.04904905        1.28362443        0.02114604        1.19678668        0.05326570        0.01042733        0.00199868
       -9.03903904        1.23849466        0.01995271        1.15458869        0.05184807        0.01018308        0.00192211
       -9.02902903        1.19265538        0.01878879        1.11168849        0.05040730        0.00992538        0.00184542
       -9.01901902        1.14670289        0.01766578        1.06864691        0.04896207        0.00965859        0.00176954
       -9.00900901        1.10117979        0.01659353        1.02597464        0.04752950        0.00938685        0.00169527
       -8.99899900        1.05656663        0.01558026        0.98412428        0.04612488        0.00911392        0.00162329
       -8.98898899        1.01327619        0.01463249        0.94348491        0.04476146        0.00884314        0.00155419
       -8.97897898        0.97165043        0.01375513        0.90437926        0.04345028        0.00857738        0.00148839
       -8.96896897        0.93196005        0.01295151        0.86706315        0.04220019        0.00831901        0.00142621
       -8.95895896        0.89440632        0.01222354        0.83172724        0.04101783        0.00806989        0.00136782
       -8.94894895        0.85912507        0.01157182        0.79850073        0.03990781        0.00783141        0.00131330
       -8.93893894        0.82619247        0.01099578        0.76745670        0.03887288        0.00760450        0.00126261
       -8.92892893        0.79563211        0.01049385        0.73861874        0.03791419        0.00738967        0.00121566
       -8.91891892        0.76742314        0.01006363        0.71196849        0.03703163        0.00718715        0.00117225
       -8.90890891        0.74150882        0.00970201        0.68745364        0.03622415        0.00699686        0.00113216
       -8.89889890        0.71780516        0.00940534        0.66499601        0.03549012        0.00681857        0.00109513
       -8.88888889        0.69620923        0.00916951        0.64449927        0.03482763        0.00665193        0.00106089
       -8.87887888        0.67660663        0.00899009        0.62585601        0.03423481        0.00649653        0.00102920
       -8.86886887        0.65887795        0.00886234        0.60895382        0.03371002        0.00635199        0.00099979
       -8.85885886        0.64290396        0.00878132        0.59368019        0.03325201        0.00621797        0.00097246
       -8.84884885        0.62856924        0.00874188        0.57992611        0.03286000        0.00609421        0.00094704
       -8.83883884        0.61576451        0.00873871        0.56758828        0.03253361        0.00598053        0.00092337
       -8.82882883        0.60438745        0.00876630        0.55657009        0.03227283        0.00587686        0.00090138
       -8.81881882        0.59434235        0.00881899        0.54678143        0.03207778        0.00578318        0.00088098
       -8.80880881        0.58553876        0.00889096        0.53813758        0.03194854        0.00569952        0.00086216
       -8.79879880        0.57788947        0.00897629        0.53055744        0.03188489        0.00562594        0.00084491
       -8.78878879        0.57130807        0.00906896        0.52396134        0.03188605        0.00556248        0.00082924
       -8.77877878        0.56570654        0.00916296        0.51826882        0.03195048        0.00550910        0.00081517
       -8.76876877        0.56099299        0.00925234        0.51339656        0.03207563        0.00546573        0.00080274
       -8.75875876        0.55707000        0.00933135        0.50925672        0.03225786        0.00543214        0.00079194
       -8.74874875        0.55383358        0.00939452        0.50575591        0.03249233        0.00540801        0.00078280
       -8.73873874        0.55117296        0.00943682        0.50279489        0.03277307        0.00539288        0.00077530
       -8.72872873        0.54897128        0.00945378        0.50026893        0.03309297        0.00538617        0.00076942
       -8.71871872        0.54710705        0.00944161        0.49806912        0.03344402        0.00538719        0.00076511
       -8.70870871        0.54545635        0.00939727        0.49608416        0.03381748        0.00539514        0.00076230
       -8.69869870        0.54389564        0.00931862        0.49420281        0.03420411        0.00540918        0.00076091
       -8.68868869        0.54230489        0.00920442        0.49231673        0.03459450        0.00542840        0.00076084
       -8.67867868        0.54057096        0.00905436        0.49032344        0.03497928        0.00545189        0.00076198
       -8.66866867        0.53859085        0.00886908        0.48812933        0.03534946        0.00547877        0.00076420
       -8.65865866        0.53627465        0.00865009        0.48565242        0.03569660        0.00550817        0.00076737
       -8.64864865        0.53354817        0.00839969        0.48282479        0.03601302        0.00553932        0.00077135
       -8.63863864        0.53035473        0.00812094        0.47959438        0.03629195        0.00557147        0.00077600
       -8.62862863        0.52665638        0.00781745        0.47592619        0.03652760        0.00560397        0.00078117
       -8.61861862        0.52243421        0.00749332        0.47180272        0.03671519        0.00563626        0.00078671
       -8.60860861        0.51768794        0.00715296        0.46722370        0.03685095        0.00566783        0.00079250
       -8.59859860        0.51243462        0.00680097        0.46220504        0.03693203        0.00569820        0.00079837
       -8.58858859        0.50670678        0.00644202        0.45677716        0.03695642        0.00572699        0.00080421
       -8.57857858        0.50055002        0.00608068        0.45098280        0.03692290        0.00575379        0.00080986
       -8.56856857        0.49402015        0.00572137        0.44487447        0.03683086        0.00577824        0.00081521
       -8.55855856        0.48718031        0.00536823        0.43851164        0.03668032        0.00579999        0.00082013
       -8.54854855        0.48009806        0.00502509        0.43195801        0.03647177        0.00581867        0.00082452
       -8.53853854        0.47284268        0.00469535        0.42527889        0.03620624        0.00583394        0.00082827
       -8.52852853        0.46548296        0.00438201        0.41853894        0.03588525        0.00584545        0.00083131
       -8.51851852        0.45808550        0.00408766        0.41180046        0.03551089        0.00585291        0.00083357
       -8.50850851        0.45071370        0.00381445        0.40512226        0.03508593        0.00585604        0.00083502
       -8.49849850        0.44342743        0.00356412        0.39855912        0.03461388        0.00585467        0.00083564
       -8.48848849        0.43628348        0.00333806        0.39216210        0.03409917        0.00584869        0.00083546
       -8.47847848        0.42933658        0.00313736        0.38597930        0.03354723        0.00583815        0.00083453
       -8.46846847        0.42264100        0.00296285        0.38005730        0.03296465        0.00582325        0.00083295
