#  aims_uuid : F128D8B5-E5F3-407F-ADF6-DC6AC86BB935                                
#  angular momentum projected density of states for species Mo as calculated by FHI-aims 
# The energy reference for this output is the vacuum level =       0.000000 eV
#      Energy (eV)         total dos     l= 0              l= 1              l= 2              l= 3              l= 4
      -10.00000000        1.00840946        0.03773369        0.12926474        0.82946494        0.01038117        0.00156492
       -9.98998999        1.05374705        0.04285216        0.13773508        0.86056249        0.01093388        0.00166345
       -9.97997998        1.09766660        0.04840831        0.14640011        0.88958762        0.01150822        0.00176235
       -9.96996997        1.13977778        0.05438901        0.15519960        0.91622764        0.01210050        0.00186103
       -9.95995996        1.17972004        0.06077160        0.16406695        0.94021593        0.01270668        0.00195887
       -9.94994995        1.21716760        0.06752333        0.17292957        0.96133713        0.01332239        0.00205519
       -9.93993994        1.25183294        0.07460119        0.18170931        0.97943023        0.01394292        0.00214929
       -9.92992993        1.28346870        0.08195200        0.19032320        0.99438982        0.01456325        0.00224044
       -9.91991992        1.31186843        0.08951285        0.19868431        1.00616537        0.01517806        0.00232784
       -9.90990991        1.33686624        0.09721186        0.20670291        1.01475899        0.01578177        0.00241071
       -9.89989990        1.35833582        0.10496936        0.21428786        1.02022177        0.01636858        0.00248825
       -9.88988989        1.37618889        0.11269931        0.22134824        1.02264916        0.01693253        0.00255966
       -9.87987988        1.39037347        0.12031106        0.22779516        1.02217545        0.01746763        0.00262417
       -9.86986987        1.40087195        0.12771131        0.23354379        1.01896785        0.01796794        0.00268107
       -9.85985986        1.40769919        0.13480622        0.23851536        1.01322018        0.01842772        0.00272971
       -9.84984985        1.41090056        0.14150365        0.24263925        1.00514656        0.01884158        0.00276953
       -9.83983984        1.41055000        0.14771537        0.24585489        0.99497506        0.01920460        0.00280008
       -9.82982983        1.40674794        0.15335915        0.24811354        0.98294167        0.01951253        0.00282105
       -9.81981982        1.39961913        0.15836079        0.24937967        0.96928455        0.01976188        0.00283223
       -9.80980981        1.38931033        0.16265585        0.24963213        0.95423872        0.01995003        0.00283359
       -9.79979980        1.37598783        0.16619109        0.24886479        0.93803135        0.02007537        0.00282523
       -9.78978979        1.35983480        0.16892558        0.24708682        0.92087772        0.02013731        0.00280737
       -9.77977978        1.34104865        0.17083153        0.24432251        0.90297790        0.02013632        0.00278039
       -9.76976977        1.31983832        0.17189457        0.24061068        0.88451436        0.02007393        0.00274478
       -9.75975976        1.29642177        0.17211384        0.23600370        0.86565043        0.01995266        0.00270115
       -9.74974975        1.27102365        0.17150160        0.23056625        0.84652968        0.01977595        0.00265017
       -9.73973974        1.24387322        0.17008259        0.22437370        0.82727622        0.01954809        0.00259262
       -9.72972973        1.21520265        0.16789305        0.21751042        0.80799581        0.01927406        0.00252931
       -9.71971972        1.18524558        0.16497956        0.21006784        0.78877770        0.01895938        0.00246110
       -9.70970971        1.15423599        0.16139766        0.20214253        0.76969693        0.01861000        0.00238887
       -9.69969970        1.12240720        0.15721040        0.19383417        0.75081699        0.01823213        0.00231351
       -9.68968969        1.08999096        0.15248673        0.18524358        0.73219267        0.01783208        0.00223590
       -9.67967968        1.05721652        0.14729997        0.17647082        0.71387271        0.01741610        0.00215692
       -9.66966967        1.02430954        0.14172620        0.16761333        0.69590232        0.01699027        0.00207742
       -9.65965966        0.99149083        0.13584278        0.15876425        0.67832524        0.01656034        0.00199822
       -9.64964965        0.95897487        0.12972689        0.15001086        0.66118536        0.01613167        0.00192008
       -9.63963964        0.92696818        0.12345425        0.14143324        0.64452786        0.01570908        0.00184375
       -9.62962963        0.89566756        0.11709785        0.13310311        0.62839989        0.01529680        0.00176991
       -9.61961962        0.86525845        0.11072695        0.12508300        0.61285088        0.01489844        0.00169919
       -9.60960961        0.83591347        0.10440610        0.11742565        0.59793261        0.01451695        0.00163216
       -9.59959960        0.80779125        0.09819438        0.11017373        0.58369915        0.01415466        0.00156933
       -9.58958959        0.78103594        0.09214472        0.10335996        0.57020686        0.01381324        0.00151115
       -9.57957958        0.75577720        0.08630347        0.09700743        0.55751444        0.01349384        0.00145802
       -9.56956957        0.73213101        0.08070998        0.09113040        0.54568328        0.01319709        0.00141026
       -9.55955956        0.71020112        0.07539641        0.08573526        0.53477804        0.01292324        0.00136816
       -9.54954955        0.69008121        0.07038769        0.08082182        0.52486748        0.01267225        0.00133197
       -9.53953954        0.67185759        0.06570153        0.07638477        0.51602554        0.01244388        0.00130187
       -9.52952953        0.65561233        0.06134868        0.07241519        0.50833260        0.01223782        0.00127805
       -9.51951952        0.64142659        0.05733319        0.06890218        0.50187676        0.01205377        0.00126068
       -9.50950951        0.62938394        0.05365292        0.06583442        0.49675511        0.01189155        0.00124995
       -9.49949950        0.61957357        0.05030007        0.06320153        0.49307480        0.01175112        0.00124605
       -9.48948949        0.61209299        0.04726185        0.06099531        0.49095391        0.01163268        0.00124923
       -9.47947948        0.60705021        0.04452124        0.05921066        0.49052185        0.01153668        0.00125978
       -9.46946947        0.60456513        0.04205779        0.05784621        0.49191928        0.01146379        0.00127807
       -9.45945946        0.60477000        0.03984851        0.05690458        0.49529745        0.01141492        0.00130453
       -9.44944945        0.60780880        0.03786879        0.05639233        0.50081679        0.01139119        0.00133971
       -9.43943944        0.61383553        0.03609323        0.05631953        0.50864475        0.01139382        0.00138420
       -9.42942943        0.62301107        0.03449652        0.05669904        0.51895267        0.01142414        0.00143870
       -9.41941942        0.63549888        0.03305425        0.05754548        0.53191168        0.01148347        0.00150399
       -9.40940941        0.65145920        0.03174358        0.05887403        0.54768766        0.01157306        0.00158086
       -9.39939940        0.67104198        0.03054383        0.06069898        0.56643501        0.01169400        0.00167017
       -9.38938939        0.69437855        0.02943690        0.06303227        0.58828951        0.01184713        0.00177274
       -9.37937938        0.72157215        0.02840757        0.06588195        0.61336031        0.01203298        0.00188935
       -9.36936937        0.75268776        0.02744361        0.06925066        0.64172115        0.01225165        0.00202069
       -9.35935936        0.78774143        0.02653578        0.07313426        0.67340131        0.01250277        0.00216730
       -9.34934935        0.82668961        0.02567761        0.07752058        0.70837652        0.01278538        0.00232952
       -9.33933934        0.86941923        0.02486514        0.08238842        0.74656035        0.01309788        0.00250743
       -9.32932933        0.91573886        0.02409648        0.08770684        0.78779671        0.01343798        0.00270084
       -9.31931932        0.96537183        0.02337138        0.09343472        0.83185390        0.01380263        0.00290919
       -9.30930931        1.01795188        0.02269069        0.09952069        0.87842093        0.01418801        0.00313156
       -9.29929930        1.07302191        0.02205588        0.10590345        0.92710642        0.01458956        0.00336660
       -9.28928929        1.13003623        0.02146850        0.11251243        0.97744074        0.01500197        0.00361260
       -9.27927928        1.18836673        0.02092981        0.11926884        1.02888140        0.01541928        0.00386739
       -9.26926927        1.24731284        0.02044038        0.12608707        1.08082194        0.01583498        0.00412847
       -9.25925926        1.30611539        0.01999980        0.13287632        1.13260413        0.01624217        0.00439296
       -9.24924925        1.36397368        0.01960655        0.13954259        1.18353313        0.01663369        0.00465773
       -9.23923924        1.42006545        0.01925784        0.14599076        1.23289506        0.01700239        0.00491939
       -9.22922923        1.47356862        0.01894969        0.15212685        1.27997631        0.01734130        0.00517447
       -9.21921922        1.52368413        0.01867693        0.15786021        1.32408367        0.01764391        0.00541941
       -9.20920921        1.56965866        0.01843342        0.16310575        1.36456440        0.01790434        0.00565075
       -9.19919920        1.61080619        0.01821222        0.16778595        1.40082526        0.01811760        0.00586515
       -9.18918919        1.64652748        0.01800583        0.17183272        1.43234963        0.01827977        0.00605953
       -9.17917918        1.67632656        0.01780647        0.17518891        1.45871195        0.01838809        0.00623115
       -9.16916917        1.69982346        0.01760633        0.17780951        1.47958883        0.01844111        0.00637767
       -9.15915916        1.71676281        0.01739791        0.17966256        1.49476641        0.01843870        0.00649723
       -9.14914915        1.72701800        0.01717422        0.18072953        1.50414373        0.01838207        0.00658847
       -9.13913914        1.73059092        0.01692906        0.18100546        1.50773220        0.01827364        0.00665056
       -9.12912913        1.72760744        0.01665724        0.18049867        1.50565131        0.01811696        0.00668325
       -9.11911912        1.71830916        0.01635480        0.17923010        1.49812088        0.01791658        0.00668680
       -9.10910911        1.70304182        0.01601907        0.17723245        1.48545054        0.01767779        0.00666197
       -9.09909910        1.68224115        0.01564889        0.17454896        1.46802683        0.01740648        0.00661000
       -9.08908909        1.65641680        0.01524455        0.17123209        1.44629877        0.01710886        0.00653253
       -9.07907908        1.62613504        0.01480789        0.16734199        1.42076230        0.01679129        0.00643157
       -9.06906907        1.59200096        0.01434216        0.16294488        1.39194448        0.01646005        0.00630938
       -9.05905906        1.55464078        0.01385195        0.15811144        1.36038778        0.01612116        0.00616845
       -9.04904905        1.51468483        0.01334298        0.15291510        1.32663512        0.01578022        0.00601141
       -9.03903904        1.47275169        0.01282192        0.14743052        1.29121605        0.01544228        0.00584093
       -9.02902903        1.42943384        0.01229610        0.14173194        1.25463437        0.01511172        0.00565972
       -9.01901902        1.38528531        0.01177320        0.13589187        1.21735764        0.01479221        0.00547039
       -9.00900901        1.34081146        0.01126096        0.12997974        1.17980859        0.01448669        0.00527548
       -8.99899900        1.29646113        0.01076685        0.12406080        1.14235882        0.01419732        0.00507734
       -8.98898899        1.25262143        0.01029779        0.11819521        1.10532474        0.01392553        0.00487816
       -8.97897898        1.20961497        0.00985985        0.11243729        1.06896587        0.01367207        0.00467989
       -8.96896897        1.16769983        0.00945804        0.10683504        1.03348542        0.01343709        0.00448425
       -8.95895896        1.12707192        0.00909615        0.10142983        0.99903304        0.01322020        0.00429271
       -8.94894895        1.08786967        0.00877663        0.09625638        0.96570956        0.01302060        0.00410649
       -8.93893894        1.05018061        0.00850058        0.09134286        0.93357342        0.01283716        0.00392660
       -8.92892893        1.01404964        0.00826775        0.08671122        0.90264832        0.01266858        0.00375377
       -8.91891892        0.97948830        0.00807667        0.08237772        0.87293188        0.01251347        0.00358857
       -8.90890891        0.94648457        0.00792478        0.07835350        0.84440447        0.01237046        0.00343135
       -8.89889890        0.91501267        0.00780863        0.07464531        0.81703807        0.01223832        0.00328233
       -8.88888889        0.88504226        0.00772411        0.07125619        0.79080434        0.01211603        0.00314159
       -8.87887888        0.85654648        0.00766664        0.06818624        0.76568165        0.01200285        0.00300910
       -8.86886887        0.82950839        0.00763149        0.06543324        0.74166055        0.01189835        0.00288476
       -8.85885886        0.80392560        0.00761393        0.06299325        0.71874754        0.01180246        0.00276842
       -8.84884885        0.77981272        0.00760942        0.06086107        0.69696688        0.01171545        0.00265990
       -8.83883884        0.75720172        0.00761384        0.05903056        0.67636045        0.01163787        0.00255901
       -8.82882883        0.73614024        0.00762352        0.05749481        0.65698585        0.01157053        0.00246553
       -8.81881882        0.71668818        0.00763540        0.05624620        0.63891288        0.01151443        0.00237927
       -8.80880881        0.69891273        0.00764699        0.05527630        0.62221877        0.01147062        0.00230005
       -8.79879880        0.68288255        0.00765643        0.05457569        0.60698261        0.01144015        0.00222768
       -8.78878879        0.66866132        0.00766241        0.05413372        0.59327930        0.01142392        0.00216197
       -8.77877878        0.65630129        0.00766410        0.05393821        0.58117362        0.01142261        0.00210275
       -8.76876877        0.64583727        0.00766109        0.05397516        0.57071466        0.01143653        0.00204983
       -8.75875876        0.63728143        0.00765326        0.05422848        0.56193109        0.01146558        0.00200302
       -8.74874875        0.63061922        0.00764071        0.05467979        0.55482747        0.01150915        0.00196210
       -8.73873874        0.62580674        0.00762361        0.05530834        0.54938186        0.01156608        0.00192684
       -8.72872873        0.62276958        0.00760215        0.05609095        0.54554483        0.01163466        0.00189698
       -8.71871872        0.62140315        0.00757641        0.05700213        0.54323974        0.01171262        0.00187226
       -8.70870871        0.62157459        0.00754633        0.05801429        0.54236444        0.01179716        0.00185237
       -8.69869870        0.62312586        0.00751166        0.05909808        0.54279405        0.01188507        0.00183700
       -8.68868869        0.62587805        0.00747191        0.06022278        0.54438474        0.01197279        0.00182583
       -8.67867868        0.62963641        0.00742638        0.06135679        0.54697816        0.01205655        0.00181853
       -8.66866867        0.63419592        0.00737410        0.06246826        0.55040630        0.01213250        0.00181475
       -8.65865866        0.63934711        0.00731397        0.06352564        0.55449644        0.01219689        0.00181416
       -8.64864865        0.64488171        0.00724471        0.06449832        0.55907606        0.01224618        0.00181643
       -8.63863864        0.65059790        0.00716498        0.06535729        0.56397717        0.01227723        0.00182123
       -8.62862863        0.65630498        0.00707342        0.06607570        0.56904024        0.01228740        0.00182823
       -8.61861862        0.66182719        0.00696872        0.06662948        0.57411717        0.01227468        0.00183713
       -8.60860861        0.66700658        0.00684976        0.06699782        0.57907361        0.01223778        0.00184762
       -8.59859860        0.67170496        0.00671559        0.06716359        0.58379023        0.01217615        0.00185940
       -8.58858859        0.67580489        0.00656558        0.06711375        0.58816339        0.01209001        0.00187216
       -8.57857858        0.67920988        0.00639945        0.06683957        0.59210490        0.01198034        0.00188561
       -8.56856857        0.68184389        0.00621730        0.06633684        0.59554151        0.01184881        0.00189944
       -8.55855856        0.68365047        0.00601966        0.06560593        0.59841387        0.01169768        0.00191333
       -8.54854855        0.68459159        0.00580750        0.06465179        0.60067556        0.01152976        0.00192698
       -8.53853854        0.68464658        0.00558223        0.06348388        0.60229219        0.01134821        0.00194007
       -8.52852853        0.68381126        0.00534565        0.06211598        0.60324085        0.01115649        0.00195230
       -8.51851852        0.68209748        0.00509996        0.06056600        0.60351000        0.01095816        0.00196335
       -8.50850851        0.67953308        0.00484768        0.05885566        0.60309992        0.01075686        0.00197297
       -8.49849850        0.67616243        0.00459157        0.05701019        0.60202364        0.01055613        0.00198091
       -8.48848849        0.67204729        0.00433462        0.05505795        0.60030836        0.01035939        0.00198697
       -8.47847848        0.66726799        0.00407994        0.05303010        0.59799707        0.01016986        0.00199103
       -8.46846847        0.66192466        0.00383071        0.05096011        0.59515027        0.00999054        0.00199302
