#  aims_uuid : F128D8B5-E5F3-407F-ADF6-DC6AC86BB935                                
#  angular momentum projected density of states for species S as calculated by FHI-aims 
# The energy reference for this output is the vacuum level =       0.000000 eV
#      Energy (eV)         total dos     l= 0              l= 1              l= 2              l= 3              l= 4
      -10.00000000        0.90959009        0.07100552        0.78177072        0.05025812        0.00594309        0.00061264
       -9.98998999        0.95902729        0.07590173        0.82321696        0.05300170        0.00626963        0.00063727
       -9.97997998        1.00855025        0.08080783        0.86478265        0.05570502        0.00659136        0.00066340
       -9.96996997        1.05779727        0.08568882        0.90616542        0.05834624        0.00690588        0.00069092
       -9.95995996        1.10639864        0.09050856        0.94705580        0.06090371        0.00721087        0.00071969
       -9.94994995        1.15397905        0.09523007        0.98713923        0.06335608        0.00750409        0.00074958
       -9.93993994        1.20015986        0.09981568        1.02609785        0.06568251        0.00778341        0.00078041
       -9.92992993        1.24456122        0.10422739        1.06361222        0.06786288        0.00804678        0.00081196
       -9.91991992        1.28680461        0.10842716        1.09936321        0.06987793        0.00829229        0.00084402
       -9.90990991        1.32651573        0.11237738        1.13303430        0.07170958        0.00851816        0.00087631
       -9.89989990        1.36332827        0.11604134        1.16431453        0.07334110        0.00872275        0.00090855
       -9.88988989        1.39688850        0.11938384        1.19290214        0.07475748        0.00890462        0.00094042
       -9.87987988        1.42686069        0.12237189        1.21850907        0.07594566        0.00906249        0.00097158
       -9.86986987        1.45293339        0.12497533        1.24086617        0.07689490        0.00919533        0.00100166
       -9.85985986        1.47482629        0.12716764        1.25972900        0.07759702        0.00930233        0.00103030
       -9.84984985        1.49229726        0.12892656        1.27488394        0.07804666        0.00938297        0.00105712
       -9.83983984        1.50514938        0.13023472        1.28615438        0.07824151        0.00943701        0.00108177
       -9.82982983        1.51323738        0.13108015        1.29340651        0.07818235        0.00946449        0.00110389
       -9.81981982        1.51647326        0.13145663        1.29655454        0.07787317        0.00946576        0.00112317
       -9.80980981        1.51483048        0.13136386        1.29556478        0.07732104        0.00944145        0.00113934
       -9.79979980        1.50834674        0.13080747        1.29045860        0.07653600        0.00939250        0.00115217
       -9.78978979        1.49712494        0.12979882        1.28131379        0.07553077        0.00932004        0.00116151
       -9.77977978        1.48133235        0.12835465        1.26826446        0.07432051        0.00922546        0.00116726
       -9.76976977        1.46119793        0.12649654        1.25149930        0.07292238        0.00911033        0.00116938
       -9.75975976        1.43700806        0.12425032        1.23125827        0.07135522        0.00897634        0.00116791
       -9.74974975        1.40910066        0.12164535        1.20782798        0.06963905        0.00882531        0.00116297
       -9.73973974        1.37785818        0.11871376        1.18153580        0.06779477        0.00865911        0.00115472
       -9.72972973        1.34369950        0.11548976        1.15274299        0.06584369        0.00847966        0.00114341
       -9.71971972        1.30707126        0.11200885        1.12183701        0.06380722        0.00828887        0.00112931
       -9.70970971        1.26843862        0.10830726        1.08922338        0.06170656        0.00808865        0.00111277
       -9.69969970        1.22827594        0.10442134        1.05531719        0.05956241        0.00788088        0.00109413
       -9.68968969        1.18705750        0.10038705        1.02053453        0.05739474        0.00766738        0.00107380
       -9.67967968        1.14524847        0.09623961        0.98528416        0.05522259        0.00744993        0.00105218
       -9.66966967        1.10329640        0.09201314        0.94995943        0.05306391        0.00723025        0.00102967
       -9.65965966        1.06162337        0.08774041        0.91493095        0.05093537        0.00700999        0.00100666
       -9.64964965        1.02061907        0.08345262        0.88053994        0.04885227        0.00679071        0.00098353
       -9.63963964        0.98063492        0.07917925        0.84709273        0.04682839        0.00657392        0.00096063
       -9.62962963        0.94197955        0.07494791        0.81485643        0.04487592        0.00636100        0.00093829
       -9.61961962        0.90491566        0.07078421        0.78405603        0.04300536        0.00615326        0.00091680
       -9.60960961        0.86965856        0.06671166        0.75487311        0.04122549        0.00595190        0.00089640
       -9.59959960        0.83637638        0.06275154        0.72744620        0.03954337        0.00575796        0.00087731
       -9.58958959        0.80519205        0.05892287        0.70187275        0.03796431        0.00557241        0.00085971
       -9.57957958        0.77618693        0.05524233        0.67821279        0.03649202        0.00539605        0.00084374
       -9.56956957        0.74940607        0.05172425        0.65649405        0.03512867        0.00522957        0.00082954
       -9.55955956        0.72486467        0.04838059        0.63671831        0.03387505        0.00507351        0.00081720
       -9.54954955        0.70255568        0.04522106        0.61886864        0.03273085        0.00492832        0.00080682
       -9.53953954        0.68245797        0.04225313        0.60291722        0.03169480        0.00479432        0.00079849
       -9.52952953        0.66454465        0.03948225        0.58883329        0.03076503        0.00467178        0.00079231
       -9.51951952        0.64879130        0.03691196        0.57659077        0.02993931        0.00456087        0.00078838
       -9.50950951        0.63518332        0.03454414        0.56617525        0.02921533        0.00446177        0.00078683
       -9.49949950        0.62372241        0.03237917        0.55758979        0.02859103        0.00437462        0.00078780
       -9.48948949        0.61443145        0.03041619        0.55085940        0.02806478        0.00429963        0.00079144
       -9.47947948        0.60735789        0.02865328        0.54603395        0.02763567        0.00423705        0.00079794
       -9.46946947        0.60257520        0.02708766        0.54318922        0.02730360        0.00418722        0.00080750
       -9.45945946        0.60018251        0.02571580        0.54242631        0.02706945        0.00415061        0.00082033
       -9.44944945        0.60030232        0.02453361        0.54386915        0.02693510        0.00412782        0.00083665
       -9.43943944        0.60307651        0.02353639        0.54766048        0.02690336        0.00411959        0.00085668
       -9.42942943        0.60866072        0.02271896        0.55395634        0.02697794        0.00412685        0.00088063
       -9.41941942        0.61721731        0.02207557        0.56291921        0.02716320        0.00415064        0.00090869
       -9.40940941        0.62890715        0.02159984        0.57471017        0.02746395        0.00419217        0.00094102
       -9.39939940        0.64388055        0.02128470        0.58948027        0.02788510        0.00425272        0.00097776
       -9.38938939        0.66226746        0.02112224        0.60736128        0.02843133        0.00433364        0.00101897
       -9.37937938        0.68416740        0.02110365        0.62845615        0.02910662        0.00443629        0.00106468
       -9.36936937        0.70963923        0.02121906        0.65282951        0.02991386        0.00456196        0.00111484
       -9.35935936        0.73869129        0.02145748        0.68049832        0.03085440        0.00471177        0.00116931
       -9.34934935        0.77127209        0.02180673        0.71142325        0.03192758        0.00488664        0.00122790
       -9.33933934        0.80726207        0.02225343        0.74550084        0.03313037        0.00508715        0.00129028
       -9.32932933        0.84646677        0.02278303        0.78255715        0.03445703        0.00531347        0.00135609
       -9.31931932        0.88861191        0.02337991        0.82234306        0.03589884        0.00556528        0.00142482
       -9.30930931        0.93334080        0.02402748        0.86453172        0.03744401        0.00584169        0.00149590
       -9.29929930        0.98021453        0.02470845        0.90871864        0.03907758        0.00614120        0.00156867
       -9.28928929        1.02871518        0.02540501        0.95442457        0.04078159        0.00646162        0.00164238
       -9.27927928        1.07825239        0.02609920        1.00110152        0.04253534        0.00680012        0.00171621
       -9.26926927        1.12817334        0.02677320        1.04814195        0.04431569        0.00715319        0.00178931
       -9.25925926        1.17777606        0.02740972        1.09489117        0.04609768        0.00751673        0.00186076
       -9.24924925        1.22632567        0.02799239        1.14066250        0.04785505        0.00788607        0.00192966
       -9.23923924        1.27307319        0.02850613        1.18475485        0.04956100        0.00825613        0.00199508
       -9.22922923        1.31727612        0.02893749        1.22647205        0.05118893        0.00862149        0.00205616
       -9.21921922        1.35821991        0.02927502        1.26514307        0.05271318        0.00897659        0.00211205
       -9.20920921        1.39523939        0.02950951        1.30014221        0.05410986        0.00931582        0.00216200
       -9.19919920        1.42773907        0.02963420        1.33090829        0.05535746        0.00963376        0.00220536
       -9.18918919        1.45521128        0.02964494        1.35696188        0.05643758        0.00992530        0.00224158
       -9.17917918        1.47725127        0.02954022        1.37791963        0.05733539        0.01018580        0.00227022
       -9.16916917        1.49356847        0.02932114        1.39350501        0.05804002        0.01041128        0.00229102
       -9.15915916        1.50399343        0.02899127        1.40355498        0.05854486        0.01059849        0.00230383
       -9.14914915        1.50847997        0.02855651        1.40802222        0.05884758        0.01074502        0.00230864
       -9.13913914        1.50710286        0.02802475        1.40697295        0.05895014        0.01084941        0.00230561
       -9.12912913        1.50005095        0.02740562        1.40058064        0.05885856        0.01091113        0.00229500
       -9.11911912        1.48761654        0.02671007        1.38911606        0.05858259        0.01093060        0.00227721
       -9.10910911        1.47018150        0.02595004        1.37293425        0.05813530        0.01090916        0.00225275
       -9.09909910        1.44820110        0.02513803        1.35245937        0.05753252        0.01084899        0.00222220
       -9.08908909        1.42218638        0.02428678        1.32816815        0.05679223        0.01075300        0.00218622
       -9.07907908        1.39268606        0.02340889        1.30057294        0.05593397        0.01062475        0.00214551
       -9.06906907        1.36026873        0.02251652        1.27020499        0.05497813        0.01046825        0.00210083
       -9.05905906        1.32550614        0.02162115        1.23759887        0.05394535        0.01028787        0.00205290
       -9.04904905        1.28895813        0.02073336        1.20327835        0.05285584        0.01008811        0.00200247
       -9.03903904        1.25115966        0.01986268        1.16774438        0.05172885        0.00987351        0.00195025
       -9.02902903        1.21261022        0.01901747        1.13146526        0.05058215        0.00964846        0.00189689
       -9.01901902        1.17376564        0.01820490        1.09486905        0.04943162        0.00941707        0.00184300
       -9.00900901        1.13503245        0.01743089        1.05833845        0.04829090        0.00918309        0.00178913
       -8.99899900        1.09676449        0.01670013        1.02220766        0.04717121        0.00894976        0.00173573
       -8.98898899        1.05926167        0.01601614        0.98676131        0.04608121        0.00871982        0.00168319
       -8.97897898        1.02277069        0.01538131        0.95223512        0.04502703        0.00849541        0.00163181
       -8.96896897        0.98748725        0.01479696        0.91881796        0.04401239        0.00827812        0.00158183
       -8.95895896        0.95355974        0.01426346        0.88665512        0.04303882        0.00806896        0.00153338
       -8.94894895        0.92109387        0.01378027        0.85585258        0.04210601        0.00786847        0.00148655
       -8.93893894        0.89015816        0.01334607        0.82648182        0.04121216        0.00767675        0.00144136
       -8.92892893        0.86078983        0.01295885        0.79858516        0.04035447        0.00749355        0.00139780
       -8.91891892        0.83300105        0.01261602        0.77218128        0.03952957        0.00731836        0.00135582
       -8.90890891        0.80678501        0.01231448        0.74727060        0.03873405        0.00715055        0.00131532
       -8.89889890        0.78212182        0.01205080        0.72384053        0.03796484        0.00698942        0.00127624
       -8.88888889        0.75898386        0.01182125        0.70187018        0.03721964        0.00683429        0.00123850
       -8.87887888        0.73734030        0.01162199        0.68133444        0.03649722        0.00668463        0.00120202
       -8.86886887        0.71716088        0.01144912        0.66220728        0.03579767        0.00654005        0.00116676
       -8.85885886        0.69841846        0.01129882        0.64446413        0.03512243        0.00640039        0.00113270
       -8.84884885        0.68109060        0.01116743        0.62808323        0.03447439        0.00626570        0.00109985
       -8.83883884        0.66515991        0.01105155        0.61304612        0.03385772        0.00613628        0.00106825
       -8.82882883        0.65061337        0.01094808        0.59933702        0.03327768        0.00601262        0.00103796
       -8.81881882        0.63744069        0.01085432        0.58694155        0.03274034        0.00589541        0.00100907
       -8.80880881        0.62563194        0.01076794        0.57584464        0.03225223        0.00578544        0.00098168
       -8.79879880        0.61517452        0.01068701        0.56602804        0.03181998        0.00568358        0.00095590
       -8.78878879        0.60605002        0.01060999        0.55746759        0.03144989        0.00559071        0.00093184
       -8.77877878        0.59823096        0.01053570        0.55013046        0.03114755        0.00550764        0.00090960
       -8.76876877        0.59167784        0.01046321        0.54397270        0.03091754        0.00543511        0.00088928
       -8.75875876        0.58633676        0.01039180        0.53893726        0.03076308        0.00537369        0.00087093
       -8.74874875        0.58213771        0.01032089        0.53495265        0.03068583        0.00532374        0.00085461
       -8.73873874        0.57899382        0.01024990        0.53193244        0.03068573        0.00528543        0.00084032
       -8.72872873        0.57680151        0.01017820        0.52977564        0.03076093        0.00525868        0.00082805
       -8.71871872        0.57544173        0.01010503        0.52836797        0.03090779        0.00524317        0.00081776
       -8.70870871        0.57478210        0.01002942        0.52758399        0.03112094        0.00523838        0.00080937
       -8.69869870        0.57467982        0.00995014        0.52728993        0.03139343        0.00524353        0.00080278
       -8.68868869        0.57498529        0.00986575        0.52734706        0.03171692        0.00525769        0.00079787
       -8.67867868        0.57554612        0.00977454        0.52761541        0.03208193        0.00527976        0.00079448
       -8.66866867        0.57621124        0.00967462        0.52795761        0.03247803        0.00530851        0.00079246
       -8.65865866        0.57683500        0.00956400        0.52824253        0.03289420        0.00534263        0.00079164
       -8.64864865        0.57728085        0.00944064        0.52834856        0.03331903        0.00538077        0.00079184
       -8.63863864        0.57742450        0.00930262        0.52816640        0.03374104        0.00542154        0.00079290
       -8.62862863        0.57715635        0.00914820        0.52760104        0.03414890        0.00546358        0.00079463
       -8.61861862        0.57638317        0.00897601        0.52657306        0.03453167        0.00550558        0.00079686
       -8.60860861        0.57502889        0.00878507        0.52501907        0.03487902        0.00554628        0.00079943
       -8.59859860        0.57303461        0.00857499        0.52289151        0.03518139        0.00558454        0.00080219
       -8.58858859        0.57035803        0.00834593        0.52015772        0.03543012        0.00561928        0.00080499
       -8.57857858        0.56697227        0.00809871        0.51679869        0.03561762        0.00564956        0.00080768
       -8.56856857        0.56286447        0.00783478        0.51280753        0.03573744        0.00567457        0.00081016
       -8.55855856        0.55803429        0.00755620        0.50818785        0.03578433        0.00569362        0.00081229
       -8.54854855        0.55249246        0.00726557        0.50295241        0.03575436        0.00570614        0.00081398
       -8.53853854        0.54625977        0.00696595        0.49712201        0.03564495        0.00571172        0.00081514
       -8.52852853        0.53936636        0.00666073        0.49072491        0.03545493        0.00571010        0.00081569
       -8.51851852        0.53185158        0.00635354        0.48379671        0.03518462        0.00570115        0.00081556
       -8.50850851        0.52376435        0.00604809        0.47638077        0.03483584        0.00568492        0.00081473
       -8.49849850        0.51516397        0.00574808        0.46852906        0.03441204        0.00566163        0.00081316
       -8.48848849        0.50612122        0.00545706        0.46030331        0.03391827        0.00563168        0.00081088
       -8.47847848        0.49671961        0.00517839        0.45177634        0.03336130        0.00559564        0.00080793
       -8.46846847        0.48705666        0.00491514        0.44303327        0.03274957        0.00555431        0.00080437
