#  aims_uuid : F128D8B5-E5F3-407F-ADF6-DC6AC86BB935                                
#  angular momentum projected density of states for species S as calculated by FHI-aims 
# The energy reference for this output is the chemical potential, mu =      -5.106688 eV
#      Energy (eV)         total dos     l= 0              l= 1              l= 2              l= 3              l= 4
       -4.89331207        0.99613751        0.07051334        0.86066894        0.05781935        0.00653581        0.00060008
       -4.88330206        1.04834842        0.07488856        0.90517479        0.06081912        0.00684168        0.00062428
       -4.87329205        1.10030829        0.07927140        0.94955060        0.06370262        0.00713395        0.00064972
       -4.86328204        1.15159262        0.08363966        0.99342068        0.06644555        0.00741052        0.00067619
       -4.85327203        1.20177685        0.08797016        1.03640804        0.06902556        0.00766957        0.00070352
       -4.84326202        1.25044073        0.09223853        1.07813873        0.07142242        0.00790958        0.00073148
       -4.83325201        1.29717229        0.09641911        1.11824577        0.07361825        0.00812931        0.00075984
       -4.82324200        1.34157165        0.10048497        1.15637285        0.07559761        0.00832784        0.00078839
       -4.81323199        1.38325472        0.10440789        1.19217794        0.07734753        0.00850451        0.00081686
       -4.80322198        1.42185698        0.10815862        1.22533686        0.07885758        0.00865892        0.00084500
       -4.79321197        1.45703742        0.11170717        1.25554695        0.08011985        0.00879089        0.00087256
       -4.78320196        1.48848263        0.11502321        1.28253078        0.08112892        0.00890047        0.00089925
       -4.77319195        1.51591103        0.11807661        1.30603990        0.08188187        0.00898784        0.00092480
       -4.76318194        1.53907701        0.12083804        1.32585850        0.08237815        0.00905337        0.00094895
       -4.75317193        1.55777485        0.12327955        1.34180679        0.08261956        0.00909754        0.00097141
       -4.74316192        1.57184219        0.12537523        1.35374402        0.08261011        0.00912091        0.00099193
       -4.73315191        1.58116296        0.12710177        1.36157086        0.08235592        0.00912414        0.00101027
       -4.72314190        1.58566936        0.12843901        1.36523112        0.08186507        0.00910796        0.00102620
       -4.71313189        1.58534305        0.12937039        1.36471264        0.08114736        0.00907312        0.00103954
       -4.70312188        1.58021541        0.12988329        1.36004735        0.08021420        0.00902043        0.00105014
       -4.69311187        1.57036683        0.12996935        1.35131052        0.07907836        0.00895072        0.00105788
       -4.68310186        1.55592531        0.12962462        1.33861939        0.07775373        0.00886485        0.00106271
       -4.67309185        1.53706430        0.12884970        1.32213111        0.07625518        0.00876370        0.00106460
       -4.66308184        1.51400013        0.12764982        1.30204024        0.07459828        0.00864819        0.00106360
       -4.65307183        1.48698903        0.12603479        1.27857600        0.07279921        0.00851924        0.00105979
       -4.64306182        1.45632387        0.12401905        1.25199916        0.07087453        0.00837784        0.00105329
       -4.63305181        1.42233072        0.12162149        1.22259881        0.06884112        0.00822501        0.00104430
       -4.62304180        1.38536511        0.11886538        1.19068887        0.06671602        0.00806182        0.00103301
       -4.61303179        1.34580805        0.11577814        1.15660442        0.06451638        0.00788943        0.00101969
       -4.60302178        1.30406164        0.11239103        1.12069765        0.06225933        0.00770903        0.00100460
       -4.59301177        1.26054409        0.10873878        1.08333340        0.05996197        0.00752191        0.00098804
       -4.58300176        1.21568433        0.10485910        1.04488434        0.05764117        0.00732941        0.00097031
       -4.57299175        1.16991584        0.10079203        1.00572561        0.05531354        0.00713294        0.00095172
       -4.56298174        1.12367007        0.09657922        0.96622908        0.05299523        0.00693395        0.00093258
       -4.55297173        1.07736941        0.09226313        0.92675736        0.05070178        0.00673393        0.00091320
       -4.54296172        1.03142008        0.08788609        0.88765779        0.04844797        0.00653435        0.00089387
       -4.53295171        0.98620515        0.08348941        0.84925664        0.04624756        0.00633668        0.00087485
       -4.52294170        0.94207824        0.07911245        0.81185388        0.04411315        0.00614233        0.00085642
       -4.51293169        0.89935811        0.07479178        0.77571890        0.04205602        0.00595262        0.00083879
       -4.50292168        0.85832474        0.07056046        0.74108740        0.04008592        0.00576877        0.00082219
       -4.49291167        0.81921700        0.06644742        0.70815982        0.03821107        0.00559185        0.00080683
       -4.48290166        0.78223224        0.06247715        0.67710137        0.03643806        0.00542280        0.00079286
       -4.47289165        0.74752790        0.05866943        0.64804371        0.03477189        0.00526240        0.00078048
       -4.46288164        0.71522489        0.05503944        0.62108830        0.03321610        0.00511124        0.00076982
       -4.45287163        0.68541271        0.05159796        0.59631102        0.03177291        0.00496979        0.00076104
       -4.44286162        0.65815583        0.04835181        0.57376794        0.03044341        0.00483838        0.00075428
       -4.43285161        0.63350092        0.04530440        0.55350167        0.02922790        0.00471723        0.00074971
       -4.42284160        0.61148439        0.04245642        0.53554794        0.02812606        0.00460649        0.00074748
       -4.41283159        0.59213976        0.03980652        0.51994186        0.02713735        0.00450627        0.00074776
       -4.40282158        0.57550425        0.03735200        0.50672357        0.02626124        0.00441671        0.00075074
       -4.39281157        0.56162429        0.03508951        0.49594274        0.02549746        0.00433798        0.00075660
       -4.38280156        0.55055959        0.03301556        0.48766179        0.02484629        0.00427038        0.00076557
       -4.37279155        0.54238540        0.03112699        0.48195759        0.02430864        0.00421433        0.00077785
       -4.36278154        0.53719316        0.02942121        0.47892157        0.02388626        0.00417043        0.00079368
       -4.35277153        0.53508918        0.02789638        0.47865829        0.02358175        0.00413947        0.00081329
       -4.34276152        0.53619183        0.02655136        0.48128257        0.02339855        0.00412247        0.00083689
       -4.33275151        0.54062711        0.02538556        0.48691532        0.02334088        0.00412064        0.00086470
       -4.32274150        0.54852303        0.02439869        0.49567836        0.02341365        0.00413543        0.00089690
       -4.31273149        0.56000286        0.02359036        0.50768823        0.02362219        0.00416843        0.00093365
       -4.30272148        0.57517769        0.02295968        0.52304944        0.02397210        0.00422140        0.00097507
       -4.29271147        0.59413836        0.02250484        0.54184724        0.02446888        0.00429617        0.00102123
       -4.28270146        0.61694706        0.02222265        0.56414005        0.02511765        0.00439458        0.00107213
       -4.27269145        0.64362894        0.02210820        0.58995188        0.02592271        0.00451842        0.00112773
       -4.26268144        0.67416371        0.02215452        0.61926479        0.02688720        0.00466931        0.00118789
       -4.25267143        0.70847775        0.02235239        0.65201175        0.02801261        0.00484859        0.00125242
       -4.24266142        0.74643694        0.02269020        0.68807006        0.02929840        0.00505728        0.00132100
       -4.23265141        0.78784042        0.02315399        0.72725570        0.03074157        0.00529588        0.00139328
       -4.22264140        0.83241583        0.02372757        0.76931885        0.03233626        0.00556437        0.00146877
       -4.21263139        0.87981634        0.02439275        0.81394113        0.03407349        0.00586205        0.00154692
       -4.20262138        0.92961981        0.02512968        0.86073467        0.03594088        0.00618749        0.00162709
       -4.19261137        0.98133050        0.02591728        0.90924360        0.03792258        0.00653852        0.00170853
       -4.18260136        1.03438353        0.02673371        0.95894801        0.03999923        0.00691213        0.00179045
       -4.17259135        1.08815233        0.02755689        1.00927078        0.04214813        0.00730454        0.00187199
       -4.16258134        1.14195907        0.02836502        1.05958702        0.04434358        0.00771123        0.00195222
       -4.15257133        1.19508788        0.02913711        1.10923634        0.04655724        0.00812699        0.00203020
       -4.14256132        1.24680059        0.02985346        1.15753732        0.04875881        0.00854604        0.00210497
       -4.13255131        1.29635445        0.03049608        1.20380398        0.05091669        0.00896215        0.00217555
       -4.12254130        1.34302111        0.03104908        1.24736338        0.05299878        0.00936885        0.00224102
       -4.11253129        1.38610620        0.03149895        1.28757387        0.05497334        0.00975955        0.00230049
       -4.10252128        1.42496842        0.03183473        1.32384285        0.05680990        0.01012779        0.00235316
       -4.09251127        1.45903753        0.03204823        1.35564357        0.05848007        0.01046737        0.00239829
       -4.08250126        1.48783008        0.03213398        1.38252981        0.05995836        0.01077264        0.00243529
       -4.07249125        1.51096240        0.03208926        1.40414799        0.06122289        0.01103859        0.00246367
       -4.06248124        1.52816010        0.03191402        1.42024600        0.06225594        0.01126105        0.00248309
       -4.05247123        1.53926378        0.03161071        1.43067851        0.06304439        0.01143680        0.00249338
       -4.04246122        1.54423065        0.03118409        1.43540844        0.06357996        0.01156368        0.00249448
       -4.03245121        1.54313222        0.03064102        1.43450471        0.06385934        0.01164063        0.00248652
       -4.02244120        1.53614826        0.02999018        1.42813653        0.06388410        0.01166769        0.00246976
       -4.01243119        1.52355745        0.02924183        1.41656456        0.06366046        0.01164598        0.00244462
       -4.00242118        1.50572524        0.02840746        1.40012951        0.06319900        0.01157764        0.00241163
       -3.99241117        1.48308975        0.02749953        1.37923893        0.06251417        0.01146569        0.00237143
       -3.98240116        1.45614623        0.02653115        1.35435262        0.06162375        0.01131396        0.00232475
       -3.97239115        1.42543088        0.02551576        1.32596754        0.06054830        0.01112687        0.00227241
       -3.96238114        1.39150475        0.02446685        1.29460284        0.05931050        0.01090930        0.00221526
       -3.95237113        1.35493819        0.02339769        1.26078537        0.05793456        0.01066640        0.00215417
       -3.94236112        1.31629647        0.02232100        1.22503647        0.05644554        0.01040344        0.00209003
       -3.93235111        1.27612691        0.02124876        1.18786006        0.05486877        0.01012561        0.00202370
       -3.92234110        1.23494781        0.02019201        1.14973255        0.05322931        0.00983792        0.00195602
       -3.91233109        1.19323941        0.01916058        1.11109467        0.05155137        0.00954503        0.00188776
       -3.90232108        1.15143698        0.01816306        1.07234524        0.04985788        0.00925116        0.00181963
       -3.89231107        1.10992599        0.01720665        1.03383697        0.04817009        0.00896002        0.00175225
       -3.88230106        1.06903947        0.01629711        0.99587423        0.04650722        0.00867475        0.00168616
       -3.87229105        1.02905731        0.01543879        0.95871259        0.04488621        0.00839790        0.00162182
       -3.86228104        0.99020740        0.01463466        0.92256016        0.04332157        0.00813143        0.00155958
       -3.85227103        0.95266843        0.01388639        0.88758030        0.04182529        0.00787675        0.00149970
       -3.84226102        0.91657413        0.01319453        0.85389565        0.04040683        0.00763476        0.00144236
       -3.83225101        0.88201847        0.01255858        0.82159305        0.03907327        0.00740590        0.00138766
       -3.82224100        0.84906177        0.01197725        0.79072922        0.03782942        0.00719025        0.00133564
       -3.81223099        0.81773717        0.01144857        0.76133666        0.03667808        0.00698760        0.00128627
       -3.80222098        0.78805714        0.01097012        0.73342965        0.03562036        0.00679753        0.00123947
       -3.79221097        0.76001971        0.01053919        0.70700988        0.03465597        0.00661950        0.00119517
       -3.78220096        0.73361408        0.01015290        0.68207146        0.03378359        0.00645291        0.00115323
       -3.77219095        0.70882530        0.00980835        0.65860507        0.03300116        0.00629717        0.00111354
       -3.76218094        0.68563784        0.00950269        0.63660115        0.03230625        0.00615175        0.00107599
       -3.75217093        0.66403793        0.00923321        0.61605178        0.03169625        0.00601623        0.00104046
       -3.74216092        0.64401457        0.00899729        0.59695152        0.03116861        0.00589028        0.00100687
       -3.73215091        0.62555934        0.00879249        0.57929708        0.03072094        0.00577369        0.00097515
       -3.72214090        0.60866514        0.00861643        0.56308597        0.03035110        0.00566637        0.00094528
       -3.71213089        0.59332396        0.00846680        0.54831447        0.03005716        0.00556832        0.00091722
       -3.70212088        0.57952421        0.00834128        0.53497500        0.02983735        0.00547959        0.00089100
       -3.69211087        0.56724756        0.00823747        0.52305324        0.02968993        0.00540029        0.00086663
       -3.68210086        0.55646592        0.00815288        0.51252536        0.02961304        0.00533049        0.00084415
       -3.67209085        0.54713867        0.00808485        0.50335541        0.02960454        0.00527026        0.00082361
       -3.66208084        0.53921038        0.00803054        0.49549338        0.02966184        0.00521958        0.00080505
       -3.65207083        0.53260936        0.00798692        0.48887381        0.02978176        0.00517836        0.00078851
       -3.64206082        0.52724697        0.00795084        0.48341531        0.02996041        0.00514640        0.00077400
       -3.63205081        0.52301798        0.00791900        0.47902090        0.03019315        0.00512338        0.00076154
       -3.62204080        0.51980175        0.00788807        0.47557919        0.03047451        0.00510888        0.00075110
       -3.61203079        0.51746431        0.00785472        0.47296635        0.03079826        0.00510235        0.00074264
       -3.60202078        0.51586119        0.00781574        0.47104880        0.03115745        0.00510314        0.00073607
       -3.59201077        0.51484082        0.00776812        0.46968636        0.03154454        0.00511052        0.00073128
       -3.58200076        0.51424830        0.00770913        0.46873583        0.03195151        0.00512369        0.00072814
       -3.57199075        0.51392942        0.00763643        0.46805468        0.03237002        0.00514180        0.00072648
       -3.56198074        0.51373456        0.00754810        0.46750480        0.03279159        0.00516398        0.00072610
       -3.55197073        0.51352255        0.00744273        0.46695595        0.03320773        0.00518934        0.00072679
       -3.54196072        0.51316395        0.00731948        0.46628902        0.03361009        0.00521703        0.00072833
       -3.53195071        0.51254398        0.00717807        0.46539863        0.03399059        0.00524620        0.00073050
       -3.52194070        0.51156468        0.00701880        0.46419526        0.03434153        0.00527605        0.00073305
       -3.51193069        0.51014643        0.00684253        0.46260665        0.03465564        0.00530583        0.00073579
       -3.50192068        0.50822869        0.00665066        0.46057849        0.03492619        0.00533485        0.00073850
       -3.49191067        0.50576999        0.00644506        0.45807448        0.03514696        0.00536248        0.00074101
       -3.48190066        0.50274732        0.00622802        0.45507567        0.03531231        0.00538813        0.00074318
       -3.47189065        0.49915480        0.00600218        0.45157925        0.03541720        0.00541127        0.00074490
       -3.46188064        0.49500204        0.00577038        0.44759692        0.03545722        0.00543145        0.00074607
       -3.45187063        0.49031209        0.00553566        0.44315290        0.03542864        0.00544823        0.00074666
       -3.44186062        0.48511928        0.00530108        0.43828181        0.03532847        0.00546127        0.00074665
       -3.43185061        0.47946709        0.00506968        0.43302652        0.03515457        0.00547025        0.00074607
       -3.42184060        0.47340618        0.00484435        0.42743616        0.03490577        0.00547494        0.00074496
       -3.41183059        0.46699275        0.00462781        0.42156438        0.03458198        0.00547517        0.00074341
       -3.40182058        0.46028728        0.00442247        0.41546804        0.03418439        0.00547086        0.00074152
       -3.39181057        0.45335377        0.00423046        0.40920626        0.03371562        0.00546203        0.00073939
       -3.38180056        0.44625942        0.00405354        0.40284001        0.03317985        0.00544885        0.00073717
       -3.37179055        0.43907481        0.00389312        0.39643213        0.03258299        0.00543159        0.00073498
       -3.36178054        0.43187443        0.00375028        0.39004774        0.03193274        0.00541069        0.00073299
