#  aims_uuid : F128D8B5-E5F3-407F-ADF6-DC6AC86BB935                                
#  angular momentum projected density of states for species Mo as calculated by FHI-aims 
# The energy reference for this output is the chemical potential, mu =      -5.106688 eV
#      Energy (eV)         total dos     l= 0              l= 1              l= 2              l= 3              l= 4
       -4.89331207        0.97816317        0.03539448        0.15122234        0.77924792        0.01060637        0.00169206
       -4.88330206        1.02172311        0.03953051        0.16024644        0.80900110        0.01115946        0.00178560
       -4.87329205        1.06441345        0.04400224        0.16927730        0.83752394        0.01173249        0.00187749
       -4.86328204        1.10590617        0.04880437        0.17822318        0.86459043        0.01232110        0.00196709
       -4.85327203        1.14588267        0.05392493        0.18698823        0.88999502        0.01292075        0.00205374
       -4.84326202        1.18403576        0.05934452        0.19547389        0.91355381        0.01352671        0.00213684
       -4.83325201        1.22007103        0.06503566        0.20358040        0.93510506        0.01413414        0.00221578
       -4.82324200        1.25370816        0.07096234        0.21120848        0.95450914        0.01473821        0.00228999
       -4.81323199        1.28468221        0.07707986        0.21826115        0.97164819        0.01533407        0.00235893
       -4.80322198        1.31274529        0.08333487        0.22464564        0.98642572        0.01591694        0.00242213
       -4.79321197        1.33766879        0.08966583        0.23027543        0.99876628        0.01648212        0.00247913
       -4.78320196        1.35924613        0.09600384        0.23507237        1.00861535        0.01702502        0.00252955
       -4.77319195        1.37729616        0.10227372        0.23896862        1.01593952        0.01754123        0.00257307
       -4.76318194        1.39166695        0.10839563        0.24190863        1.02072673        0.01802651        0.00260944
       -4.75317193        1.40223977        0.11428684        0.24385083        1.02298675        0.01847684        0.00263851
       -4.74316192        1.40893300        0.11986387        0.24476899        1.02275147        0.01888849        0.00266018
       -4.73315191        1.41170553        0.12504479        0.24465318        1.02007506        0.01925803        0.00267447
       -4.72314190        1.41055948        0.12975157        0.24351034        1.01503372        0.01958240        0.00268145
       -4.71313189        1.40554181        0.13391244        0.24136422        1.00772488        0.01985896        0.00268131
       -4.70312188        1.39674473        0.13746417        0.23825478        0.99826596        0.02008553        0.00267429
       -4.69311187        1.38430476        0.14035402        0.23423714        0.98679244        0.02026044        0.00266072
       -4.68310186        1.36840040        0.14254143        0.22937994        0.97345551        0.02038257        0.00264096
       -4.67309185        1.34924867        0.14399926        0.22376330        0.95841931        0.02045136        0.00261545
       -4.66308184        1.32710053        0.14471457        0.21747650        0.94185797        0.02046684        0.00258464
       -4.65307183        1.30223556        0.14468890        0.21061537        0.92395260        0.02042967        0.00254902
       -4.64306182        1.27495620        0.14393797        0.20327964        0.90488842        0.02034109        0.00250909
       -4.63305181        1.24558174        0.14249099        0.19557030        0.88485215        0.02020295        0.00246535
       -4.62304180        1.21444244        0.14038945        0.18758716        0.86402986        0.02001768        0.00241830
       -4.61303179        1.18187392        0.13768555        0.17942654        0.84260518        0.01978822        0.00236843
       -4.60302178        1.14821203        0.13444035        0.17117943        0.82075799        0.01951803        0.00231623
       -4.59301177        1.11378821        0.13072170        0.16292986        0.79866348        0.01921100        0.00226216
       -4.58300176        1.07892547        0.12660216        0.15475381        0.77649143        0.01887139        0.00220668
       -4.57299175        1.04393485        0.12215678        0.14671843        0.75440568        0.01850372        0.00215023
       -4.56298174        1.00911237        0.11746109        0.13888162        0.73256365        0.01811274        0.00209327
       -4.55297173        0.97473643        0.11258922        0.13129204        0.71111568        0.01770326        0.00203623
       -4.54296172        0.94106554        0.10761220        0.12398932        0.69020437        0.01728011        0.00197954
       -4.53295171        0.90833641        0.10259659        0.11700454        0.66996363        0.01684801        0.00192364
       -4.52294170        0.87676236        0.09760335        0.11036093        0.65051766        0.01641147        0.00186896
       -4.51293169        0.84653218        0.09268701        0.10407462        0.63197989        0.01597472        0.00181594
       -4.50292168        0.81780933        0.08789510        0.09815558        0.61445200        0.01554166        0.00176500
       -4.49291167        0.79073184        0.08326790        0.09260856        0.59802305        0.01511574        0.00171658
       -4.48290166        0.76541264        0.07883837        0.08743404        0.58276909        0.01470002        0.00167112
       -4.47289165        0.74194080        0.07463226        0.08262922        0.56875318        0.01429710        0.00162904
       -4.46288164        0.72038330        0.07066843        0.07818901        0.55602592        0.01390917        0.00159077
       -4.45287163        0.70078766        0.06695925        0.07410693        0.54462669        0.01353806        0.00155673
       -4.44286162        0.68318519        0.06351114        0.07037602        0.53458540        0.01318526        0.00152736
       -4.43285161        0.66759478        0.06032508        0.06698972        0.52592486        0.01285203        0.00150308
       -4.42284160        0.65402713        0.05739728        0.06394259        0.51866347        0.01253945        0.00148435
       -4.41283159        0.64248918        0.05471977        0.06123102        0.51281827        0.01224853        0.00147160
       -4.40282158        0.63298851        0.05228102        0.05885386        0.50840808        0.01198024        0.00146531
       -4.39281157        0.62553750        0.05006663        0.05681283        0.50545645        0.01173563        0.00146596
       -4.38280156        0.62015708        0.04805989        0.05511287        0.50399441        0.01151582        0.00147409
       -4.37279155        0.61687975        0.04624246        0.05376228        0.50406271        0.01132208        0.00149022
       -4.36278154        0.61575172        0.04459491        0.05277272        0.50571337        0.01115580        0.00151492
       -4.35277153        0.61683410        0.04309738        0.05215893        0.50901049        0.01101852        0.00154879
       -4.34276152        0.62020283        0.04173006        0.05193833        0.51403015        0.01091186        0.00159243
       -4.33275151        0.62594749        0.04047379        0.05213036        0.52085935        0.01083752        0.00164647
       -4.32274150        0.63416875        0.03931049        0.05275565        0.52959391        0.01079719        0.00171151
       -4.31273149        0.64497459        0.03822359        0.05383490        0.54033543        0.01079252        0.00178815
       -4.30272148        0.65847526        0.03719844        0.05538776        0.55318718        0.01082497        0.00187692
       -4.29271147        0.67477719        0.03622251        0.05743140        0.56824917        0.01089583        0.00197829
       -4.28270146        0.69397581        0.03528564        0.05997910        0.58561242        0.01100602        0.00209262
       -4.27269145        0.71614774        0.03438010        0.06303877        0.60535262        0.01115610        0.00222015
       -4.26268144        0.74134244        0.03350056        0.06661148        0.62752337        0.01134608        0.00236095
       -4.25267143        0.76957369        0.03264400        0.07069007        0.65214931        0.01157543        0.00251488
       -4.24266142        0.80081137        0.03180950        0.07525794        0.67921943        0.01184292        0.00268156
       -4.23265141        0.83497382        0.03099794        0.08028807        0.70868082        0.01214660        0.00286040
       -4.22264140        0.87192137        0.03021163        0.08574228        0.74043330        0.01248369        0.00305047
       -4.21263139        0.91145128        0.02945393        0.09157095        0.77432519        0.01285059        0.00325061
       -4.20262138        0.95329470        0.02872879        0.09771305        0.81015067        0.01324286        0.00345933
       -4.19261137        0.99711582        0.02804033        0.10409665        0.84764878        0.01365521        0.00367485
       -4.18260136        1.04251357        0.02739239        0.11063991        0.88650456        0.01408156        0.00389515
       -4.17259135        1.08902589        0.02678819        0.11725249        0.92635210        0.01451517        0.00411794
       -4.16258134        1.13613670        0.02622992        0.12383741        0.96677989        0.01494874        0.00434074
       -4.15257133        1.18328537        0.02571856        0.13029328        1.00733802        0.01537456        0.00456094
       -4.14256132        1.22987833        0.02525361        0.13651686        1.04754728        0.01578478        0.00477580
       -4.13255131        1.27530263        0.02483305        0.14240576        1.08690968        0.01617156        0.00498258
       -4.12254130        1.31894069        0.02445326        0.14786133        1.12492012        0.01652739        0.00517858
       -4.11253129        1.36018581        0.02410916        0.15279148        1.16107865        0.01684531        0.00536122
       -4.10252128        1.39845780        0.02379427        0.15711338        1.19490293        0.01711915        0.00552807
       -4.09251127        1.43321798        0.02350101        0.16075589        1.22594034        0.01734377        0.00567697
       -4.08250126        1.46398319        0.02322092        0.16366169        1.25377925        0.01751525        0.00580607
       -4.07249125        1.49033794        0.02294503        0.16578884        1.27805922        0.01763102        0.00591383
       -4.06248124        1.51194471        0.02266418        0.16711192        1.29847949        0.01768999        0.00599914
       -4.05247123        1.52855161        0.02236943        0.16762256        1.31480587        0.01769250        0.00606125
       -4.04246122        1.53999764        0.02205245        0.16732938        1.32687557        0.01764039        0.00609986
       -4.03245121        1.54621513        0.02170584        0.16625738        1.33460004        0.01753681        0.00611507
       -4.02244120        1.54722962        0.02132349        0.16444679        1.33796582        0.01738614        0.00610737
       -4.01243119        1.54315718        0.02090088        0.16195143        1.33703347        0.01719376        0.00607765
       -4.00242118        1.53419941        0.02043523        0.15883672        1.33193453        0.01696582        0.00602711
       -3.99241117        1.52063633        0.01992570        0.15517742        1.32286696        0.01670900        0.00595725
       -3.98240116        1.50281749        0.01937344        0.15105509        1.31008893        0.01643021        0.00586982
       -3.97239115        1.48115156        0.01878151        0.14655560        1.29391132        0.01613640        0.00576674
       -3.96238114        1.45609472        0.01815482        0.14176657        1.27468903        0.01583421        0.00565008
       -3.95237113        1.42813812        0.01749986        0.13677501        1.25281142        0.01552986        0.00552197
       -3.94236112        1.39779491        0.01682448        0.13166504        1.22869196        0.01522889        0.00538455
       -3.93235111        1.36558698        0.01613751        0.12651603        1.20275748        0.01493602        0.00523994
       -3.92234110        1.33203187        0.01544838        0.12140093        1.17543726        0.01465512        0.00509018
       -3.91233109        1.29763025        0.01476672        0.11638501        1.14715229        0.01438906        0.00493717
       -3.90232108        1.26285434        0.01410197        0.11152491        1.11830501        0.01413978        0.00478267
       -3.89231107        1.22813760        0.01346293        0.10686812        1.08927000        0.01390829        0.00462825
       -3.88230106        1.19386611        0.01285749        0.10245269        1.06038593        0.01369474        0.00447527
       -3.87229105        1.16037205        0.01229227        0.09830734        1.03194900        0.01349855        0.00432489
       -3.86228104        1.12792925        0.01177246        0.09445181        1.00420840        0.01331853        0.00417805
       -3.85227103        1.09675138        0.01130161        0.09089746        0.97736377        0.01315303        0.00403549
       -3.84226102        1.06699241        0.01088166        0.08764800        0.95156487        0.01300011        0.00389777
       -3.83225101        1.03874957        0.01051287        0.08470041        0.92691333        0.01285771        0.00376526
       -3.82224100        1.01206841        0.01019398        0.08204594        0.90346653        0.01272379        0.00363817
       -3.81223099        0.98694968        0.00992237        0.07967116        0.88124301        0.01259652        0.00351662
       -3.80222098        0.96335753        0.00969421        0.07755895        0.86022936        0.01247441        0.00340060
       -3.79221097        0.94122863        0.00950480        0.07568960        0.84038782        0.01235636        0.00329006
       -3.78220096        0.92048143        0.00934875        0.07404168        0.82166432        0.01224181        0.00318486
       -3.77219095        0.90102519        0.00922031        0.07259297        0.80399625        0.01213078        0.00308488
       -3.76218094        0.88276819        0.00911360        0.07132121        0.78731960        0.01202382        0.00298995
       -3.75217093        0.86562467        0.00902285        0.07020474        0.77157507        0.01192206        0.00289995
       -3.74216092        0.84952025        0.00894262        0.06922308        0.75671272        0.01182711        0.00281472
       -3.73215091        0.83439558        0.00886794        0.06835729        0.74269518        0.01174098        0.00273418
       -3.72214090        0.82020819        0.00879447        0.06759033        0.72949917        0.01166599        0.00265823
       -3.71213089        0.80693269        0.00871853        0.06690717        0.71711557        0.01160460        0.00258681
       -3.70212088        0.79455938        0.00863722        0.06629490        0.70554807        0.01155931        0.00251988
       -3.69211087        0.78309168        0.00854832        0.06574270        0.69481079        0.01153245        0.00245743
       -3.68210086        0.77254262        0.00845037        0.06524170        0.68492502        0.01152609        0.00239944
       -3.67209085        0.76293078        0.00834252        0.06478485        0.67591564        0.01154184        0.00234593
       -3.66208084        0.75427603        0.00822450        0.06436663        0.66780722        0.01158078        0.00229690
       -3.65207083        0.74659543        0.00809654        0.06398279        0.66062041        0.01164330        0.00225240
       -3.64206082        0.73989939        0.00795924        0.06363006        0.65436862        0.01172905        0.00221242
       -3.63205081        0.73418852        0.00781347        0.06330579        0.64905535        0.01183690        0.00217700
       -3.62204080        0.72945112        0.00766033        0.06300768        0.64467207        0.01196489        0.00214614
       -3.61203079        0.72566153        0.00750100        0.06273346        0.64119693        0.01211030        0.00211984
       -3.60202078        0.72277911        0.00733666        0.06248058        0.63859411        0.01226968        0.00209808
       -3.59201077        0.72074818        0.00716850        0.06224603        0.63681391        0.01243894        0.00208081
       -3.58200076        0.71949844        0.00699757        0.06202607        0.63579335        0.01261350        0.00206794
       -3.57199075        0.71894605        0.00682482        0.06181614        0.63545732        0.01278841        0.00205937
       -3.56198074        0.71899514        0.00665103        0.06161066        0.63571997        0.01295855        0.00205493
       -3.55197073        0.71953963        0.00647683        0.06140308        0.63648651        0.01311882        0.00205439
       -3.54196072        0.72046523        0.00630267        0.06118579        0.63765498        0.01326430        0.00205749
       -3.53195071        0.72165160        0.00612886        0.06095020        0.63911819        0.01339044        0.00206392
       -3.52194070        0.72297448        0.00595559        0.06068684        0.64076553        0.01349325        0.00207327
       -3.51193069        0.72430782        0.00578290        0.06038556        0.64248478        0.01356945        0.00208513
       -3.50192068        0.72552580        0.00561079        0.06003567        0.64416378        0.01361655        0.00209900
       -3.49191067        0.72650485        0.00543920        0.05962630        0.64569201        0.01363296        0.00211438
       -3.48190066        0.72712556        0.00526805        0.05914665        0.64696213        0.01361802        0.00213071
       -3.47189065        0.72727463        0.00509730        0.05858644        0.64787148        0.01357199        0.00214742
       -3.46188064        0.72684687        0.00492692        0.05793626        0.64832369        0.01349603        0.00216396
       -3.45187063        0.72574729        0.00475700        0.05718810        0.64823030        0.01339212        0.00217977
       -3.44186062        0.72389339        0.00458770        0.05633575        0.64751265        0.01326297        0.00219432
       -3.43185061        0.72121762        0.00441931        0.05537534        0.64610398        0.01311186        0.00220713
       -3.42184060        0.71767001        0.00425226        0.05430576        0.64395167        0.01294254        0.00221778
       -3.41183059        0.71322104        0.00408713        0.05312911        0.64101979        0.01275910        0.00222591
       -3.40182058        0.70786444        0.00392465        0.05185105        0.63729167        0.01256581        0.00223126
       -3.39181057        0.70161999        0.00376569        0.05048110        0.63277256        0.01236701        0.00223364
       -3.38180056        0.69453606        0.00361130        0.04903277        0.62749199        0.01216700        0.00223300
       -3.37179055        0.68669157        0.00346265        0.04752368        0.62150591        0.01196998        0.00222935
       -3.36178054        0.67819733        0.00332104        0.04597540        0.61489807        0.01177996        0.00222285
