#  aims_uuid : F128D8B5-E5F3-407F-ADF6-DC6AC86BB935                                
#  angular momentum projected density of states for species Mo as calculated by FHI-aims 
# The energy reference for this output is the chemical potential, mu =      -5.106688 eV
#      Energy (eV)         total dos     l= 0              l= 1              l= 2              l= 3              l= 4
       -4.89331207        0.94402725        0.03395816        0.13071484        0.76686076        0.01083362        0.00165986
       -4.88330206        0.98935148        0.03909563        0.13964280        0.79747206        0.01138017        0.00176081
       -4.87329205        1.03377443        0.04475127        0.14870938        0.82650162        0.01195184        0.00186032
       -4.86328204        1.07697436        0.05092145        0.15784249        0.85370809        0.01254470        0.00195764
       -4.85327203        1.11863755        0.05759054        0.16696503        0.87887561        0.01315432        0.00205205
       -4.84326202        1.15845848        0.06472979        0.17599561        0.90181444        0.01377578        0.00214286
       -4.83325201        1.19613991        0.07229665        0.18484937        0.92236079        0.01440374        0.00222936
       -4.82324200        1.23139301        0.08023453        0.19343903        0.94037613        0.01503243        0.00231089
       -4.81323199        1.26393807        0.08847311        0.20167605        0.95574631        0.01565578        0.00238681
       -4.80322198        1.29350600        0.09692926        0.20947202        0.96838081        0.01626740        0.00245650
       -4.79321197        1.31984101        0.10550854        0.21674014        0.97821221        0.01686075        0.00251937
       -4.78320196        1.34270434        0.11410720        0.22339691        0.98519619        0.01742917        0.00257487
       -4.77319195        1.36187914        0.12261473        0.22936384        0.98931201        0.01796606        0.00262251
       -4.76318194        1.37717621        0.13091674        0.23456920        0.99056342        0.01846501        0.00266185
       -4.75317193        1.38844021        0.13889806        0.23894975        0.98897995        0.01891993        0.00269252
       -4.74316192        1.39555602        0.14644601        0.24245228        0.98461822        0.01932525        0.00271426
       -4.73315191        1.39845460        0.15345351        0.24503498        0.97756319        0.01967605        0.00272687
       -4.72314190        1.39711803        0.15982205        0.24666852        0.96792895        0.01996825        0.00273026
       -4.71313189        1.39158310        0.16546424        0.24733678        0.95585891        0.02019869        0.00272448
       -4.70312188        1.38194334        0.17030602        0.24703724        0.94152512        0.02036528        0.00270967
       -4.69311187        1.36834904        0.17428817        0.24578099        0.92512674        0.02046705        0.00268609
       -4.68310186        1.35100544        0.17736737        0.24359232        0.90688745        0.02050419        0.00265411
       -4.67309185        1.33016899        0.17951657        0.24050808        0.88705211        0.02047802        0.00261421
       -4.66308184        1.30614200        0.18072495        0.23657658        0.86588250        0.02039097        0.00256700
       -4.65307183        1.27926592        0.18099720        0.23185648        0.84365265        0.02024647        0.00251312
       -4.64306182        1.24991368        0.18035256        0.22641527        0.82064368        0.02004884        0.00245334
       -4.63305181        1.21848148        0.17882344        0.22032783        0.79713863        0.01980313        0.00238845
       -4.62304180        1.18538031        0.17645390        0.21367484        0.77341730        0.01951498        0.00231930
       -4.61303179        1.15102763        0.17329795        0.20654119        0.74975134        0.01919039        0.00224677
       -4.60302178        1.11583946        0.16941787        0.19901440        0.72639985        0.01883561        0.00217174
       -4.59301177        1.08022295        0.16488251        0.19118315        0.70360530        0.01845689        0.00209510
       -4.58300176        1.04456975        0.15976574        0.18313581        0.68159011        0.01806037        0.00201772
       -4.57299175        1.00925003        0.15414491        0.17495902        0.66055377        0.01765191        0.00194042
       -4.56298174        0.97460736        0.14809949        0.16673645        0.64067048        0.01723692        0.00186401
       -4.55297173        0.94095431        0.14170984        0.15854749        0.62208742        0.01682033        0.00178923
       -4.54296172        0.90856901        0.13505598        0.15046622        0.60492357        0.01640645        0.00171678
       -4.53295171        0.87769240        0.12821658        0.14256034        0.58926925        0.01599897        0.00164727
       -4.52294170        0.84852660        0.12126791        0.13489032        0.57518623        0.01560088        0.00158127
       -4.51293169        0.82123413        0.11428294        0.12750873        0.56270866        0.01521454        0.00151927
       -4.50292168        0.79593831        0.10733042        0.12045977        0.55184472        0.01484169        0.00146170
       -4.49291167        0.77272480        0.10047414        0.11377904        0.54257916        0.01448353        0.00140892
       -4.48290166        0.75164431        0.09377219        0.10749353        0.53487657        0.01414078        0.00136123
       -4.47289165        0.73271648        0.08727634        0.10162199        0.52868547        0.01381380        0.00131888
       -4.46288164        0.71593485        0.08103155        0.09617552        0.52394301        0.01350271        0.00128206
       -4.45287163        0.70127268        0.07507563        0.09115844        0.52058020        0.01320749        0.00125093
       -4.44286162        0.68868952        0.06943903        0.08656941        0.51852736        0.01292809        0.00122562
       -4.43285161        0.67813806        0.06414478        0.08240275        0.51771966        0.01266460        0.00120627
       -4.42284160        0.66957110        0.05920864        0.07864991        0.51810233        0.01241723        0.00119298
       -4.41283159        0.66294817        0.05463936        0.07530095        0.51963545        0.01218649        0.00118591
       -4.40282158        0.65824149        0.05043912        0.07234603        0.52229794        0.01197318        0.00118523
       -4.39281157        0.65544107        0.04660408        0.06977686        0.52609058        0.01177840        0.00119115
       -4.38280156        0.65455849        0.04312505        0.06758782        0.53103806        0.01160360        0.00120396
       -4.37279155        0.65562943        0.03998821        0.06577700        0.53718970        0.01145048        0.00122404
       -4.36278154        0.65871471        0.03717597        0.06434681        0.54461912        0.01132100        0.00125181
       -4.35277153        0.66389978        0.03466774        0.06330426        0.55342267        0.01121728        0.00128783
       -4.34276152        0.67129283        0.03244081        0.06266089        0.56371686        0.01114154        0.00133274
       -4.33275151        0.68102138        0.03047113        0.06243226        0.57563476        0.01109598        0.00138726
       -4.32274150        0.69322770        0.02873411        0.06263715        0.58932149        0.01108273        0.00145222
       -4.31273149        0.70806293        0.02720532        0.06329633        0.60492904        0.01110374        0.00152851
       -4.30272148        0.72568018        0.02586106        0.06443111        0.62261027        0.01116070        0.00161705
       -4.29271147        0.74622671        0.02467897        0.06606164        0.64251238        0.01125494        0.00171877
       -4.28270146        0.76983526        0.02363835        0.06820509        0.66476981        0.01138741        0.00183460
       -4.27269145        0.79661478        0.02272053        0.07087378        0.68949658        0.01155853        0.00196537
       -4.26268144        0.82664070        0.02190901        0.07407337        0.71677837        0.01176818        0.00211178
       -4.25267143        0.85994495        0.02118954        0.07780115        0.74666428        0.01201560        0.00227437
       -4.24266142        0.89650612        0.02055011        0.08204464        0.77915858        0.01229936        0.00245342
       -4.23265141        0.93624014        0.01998078        0.08678041        0.81421271        0.01261729        0.00264894
       -4.22264140        0.97899179        0.01947350        0.09197339        0.85171789        0.01296642        0.00286058
       -4.21263139        1.02452776        0.01902183        0.09757653        0.89149879        0.01334298        0.00308763
       -4.20262138        1.07253168        0.01862065        0.10353099        0.93330872        0.01374237        0.00332895
       -4.19261137        1.12260168        0.01826584        0.10976683        0.97682685        0.01415918        0.00358298
       -4.18260136        1.17425099        0.01795394        0.11620412        1.02165795        0.01458726        0.00384773
       -4.17259135        1.22691210        0.01768189        0.12275453        1.06733511        0.01501979        0.00412079
       -4.16258134        1.27994450        0.01744674        0.12932333        1.11332566        0.01544940        0.00439937
       -4.15257133        1.33264638        0.01724543        0.13581167        1.15904055        0.01586837        0.00468036
       -4.14256132        1.38426988        0.01707466        0.14211908        1.20384699        0.01626878        0.00496037
       -4.13255131        1.43403970        0.01693070        0.14814611        1.24708425        0.01664281        0.00523583
       -4.12254130        1.48117437        0.01680944        0.15379698        1.28808197        0.01698293        0.00550306
       -4.11253129        1.52490932        0.01670626        0.15898208        1.32618041        0.01728220        0.00575837
       -4.10252128        1.56452087        0.01661618        0.16362035        1.36075166        0.01753453        0.00599817
       -4.09251127        1.59934984        0.01653382        0.16764124        1.39122088        0.01773486        0.00621904
       -4.08250126        1.62882373        0.01645362        0.17098642        1.41708642        0.01787943        0.00641784
       -4.07249125        1.65247641        0.01636986        0.17361099        1.43793790        0.01796587        0.00659178
       -4.06248124        1.66996404        0.01627689        0.17548422        1.45347112        0.01799333        0.00673848
       -4.05247123        1.68107668        0.01616921        0.17658984        1.46349912        0.01796247        0.00685604
       -4.04246122        1.68574478        0.01604171        0.17692588        1.46795867        0.01787547        0.00694304
       -4.03245121        1.68404027        0.01588979        0.17650405        1.46691192        0.01773588        0.00699863
       -4.02244120        1.67617228        0.01570952        0.17534878        1.46054305        0.01754848        0.00702245
       -4.01243119        1.66247765        0.01549781        0.17349593        1.44915014        0.01731907        0.00701470
       -4.00242118        1.64340681        0.01525254        0.17099130        1.43313271        0.01705421        0.00697606
       -3.99241117        1.61950574        0.01497265        0.16788891        1.41297554        0.01676095        0.00690769
       -3.98240116        1.59139495        0.01465827        0.16424932        1.38922962        0.01644658        0.00681116
       -3.97239115        1.55974645        0.01431071        0.16013777        1.36249119        0.01611831        0.00668846
       -3.96238114        1.52525988        0.01393249        0.15562255        1.33337990        0.01578308        0.00654186
       -3.95237113        1.48863876        0.01352728        0.15077332        1.30251698        0.01544725        0.00637392
       -3.94236112        1.45056783        0.01309982        0.14565964        1.27050445        0.01511653        0.00618739
       -3.93235111        1.41169254        0.01265573        0.14034963        1.23790625        0.01479575        0.00598517
       -3.92234110        1.37260125        0.01220138        0.13490888        1.20523193        0.01448883        0.00577024
       -3.91233109        1.33381077        0.01174355        0.12939941        1.17292353        0.01419870        0.00554559
       -3.90232108        1.29575580        0.01128929        0.12387895        1.14134603        0.01392737        0.00531417
       -3.89231107        1.25878228        0.01084551        0.11840037        1.11078166        0.01367591        0.00507883
       -3.88230106        1.22314492        0.01041881        0.11301121        1.08142800        0.01344461        0.00484228
       -3.87229105        1.18900865        0.01001510        0.10775351        1.05339996        0.01323305        0.00460704
       -3.86228104        1.15645391        0.00963945        0.10266366        1.02673520        0.01304023        0.00437537
       -3.85227103        1.12548512        0.00929584        0.09777248        1.00140273        0.01286478        0.00414929
       -3.84226102        1.09604204        0.00898700        0.09310544        0.97731403        0.01270505        0.00393053
       -3.83225101        1.06801323        0.00871438        0.08868287        0.95433618        0.01255929        0.00372050
       -3.82224100        1.04125088        0.00847810        0.08452041        0.93230620        0.01242581        0.00352036
       -3.81223099        1.01558626        0.00827702        0.08062945        0.91104583        0.01230303        0.00333092
       -3.80222098        0.99084502        0.00810886        0.07701762        0.89037613        0.01218965        0.00315276
       -3.79221097        0.96686144        0.00797035        0.07368932        0.87013088        0.01208469        0.00298621
       -3.78220096        0.94349107        0.00785750        0.07064626        0.85016845        0.01198750        0.00283135
       -3.77219095        0.92062098        0.00776584        0.06788797        0.83038121        0.01189785        0.00268812
       -3.76218094        0.89817741        0.00769068        0.06541222        0.81070241        0.01181581        0.00255629
       -3.75217093        0.87613015        0.00762738        0.06321544        0.79110996        0.01174183        0.00243554
       -3.74216092        0.85449399        0.00757164        0.06129306        0.77162724        0.01167656        0.00232548
       -3.73215091        0.83332693        0.00751970        0.05963968        0.75232101        0.01162089        0.00222566
       -3.72214090        0.81272567        0.00746849        0.05824925        0.73329654        0.01157576        0.00213564
       -3.71213089        0.79281868        0.00741582        0.05711508        0.71469070        0.01154212        0.00205496
       -3.70212088        0.77375750        0.00736040        0.05622985        0.69666319        0.01152085        0.00198320
       -3.69211087        0.75570680        0.00730184        0.05558546        0.67938690        0.01151263        0.00191996
       -3.68210086        0.73883395        0.00724059        0.05517289        0.66303775        0.01151787        0.00186485
       -3.67209085        0.72329875        0.00717783        0.05498200        0.64778477        0.01153665        0.00181751
       -3.66208084        0.70924389        0.00711525        0.05500131        0.63378109        0.01156865        0.00177759
       -3.65207083        0.69678669        0.00705493        0.05521778        0.62115610        0.01161313        0.00174475
       -3.64206082        0.68601253        0.00699903        0.05561661        0.61000936        0.01166890        0.00171863
       -3.63205081        0.67697022        0.00694959        0.05618110        0.60040635        0.01173432        0.00169887
       -3.62204080        0.66966941        0.00690834        0.05689248        0.59237620        0.01180731        0.00168508
       -3.61203079        0.66408006        0.00687645        0.05772994        0.58591141        0.01188542        0.00167684
       -3.60202078        0.66013391        0.00685444        0.05867060        0.58096928        0.01196586        0.00167373
       -3.59201077        0.65772749        0.00684201        0.05968965        0.57747497        0.01204560        0.00167526
       -3.58200076        0.65672672        0.00683806        0.06076053        0.57532571        0.01212145        0.00168097
       -3.57199075        0.65697237        0.00684070        0.06185524        0.57439591        0.01219017        0.00169035
       -3.56198074        0.65828628        0.00684727        0.06294472        0.57454283        0.01224857        0.00170289
       -3.55197073        0.66047780        0.00685453        0.06399927        0.57561223        0.01229366        0.00171811
       -3.54196072        0.66335021        0.00685883        0.06498915        0.57744403        0.01232270        0.00173551
       -3.53195071        0.66670672        0.00685626        0.06588512        0.57987735        0.01233335        0.00175464
       -3.52194070        0.67035579        0.00684293        0.06665910        0.58275494        0.01232377        0.00177506
       -3.51193069        0.67411576        0.00681515        0.06728483        0.58592680        0.01229261        0.00179638
       -3.50192068        0.67781839        0.00676966        0.06773852        0.58925282        0.01223916        0.00181823
       -3.49191067        0.68131154        0.00670380        0.06799952        0.59260464        0.01216328        0.00184029
       -3.48190066        0.68446091        0.00661566        0.06805086        0.59586662        0.01206548        0.00186229
       -3.47189065        0.68715084        0.00650415        0.06787981        0.59893612        0.01194681        0.00188396
       -3.46188064        0.68928457        0.00636909        0.06747826        0.60172325        0.01180887        0.00190510
       -3.45187063        0.69078386        0.00621117        0.06684311        0.60415035        0.01165372        0.00192551
       -3.44186062        0.69158843        0.00603194        0.06597638        0.60615128        0.01148380        0.00194503
       -3.43185061        0.69165521        0.00583365        0.06488536        0.60767083        0.01130186        0.00196351
       -3.42184060        0.69095778        0.00561922        0.06358251        0.60866440        0.01111083        0.00198083
       -3.41183059        0.68948600        0.00539200        0.06208528        0.60909803        0.01091380        0.00199688
       -3.40182058        0.68724602        0.00515568        0.06041587        0.60894897        0.01071390        0.00201160
       -3.39181057        0.68426070        0.00491411        0.05860080        0.60820661        0.01051425        0.00202492
       -3.38180056        0.68057032        0.00467117        0.05667043        0.60687396        0.01031795        0.00203682
       -3.37179055        0.67623363        0.00443061        0.05465850        0.60496924        0.01012798        0.00204730
       -3.36178054        0.67132890        0.00419598        0.05260148        0.60252775        0.00994726        0.00205643
