#  aims_uuid : F128D8B5-E5F3-407F-ADF6-DC6AC86BB935                                
#  angular momentum projected density of states for species S as calculated by FHI-aims 
# The energy reference for this output is the vacuum level =       0.000000 eV
#      Energy (eV)         total dos     l= 0              l= 1              l= 2              l= 3              l= 4
      -10.00000000        0.90948196        0.07099221        0.78168104        0.05025348        0.00594253        0.00061270
       -9.98998999        0.95897564        0.07589557        0.82317512        0.05299842        0.00626922        0.00063731
       -9.97997998        1.00855940        0.08080950        0.86479228        0.05570311        0.00659110        0.00066342
       -9.96996997        1.05787000        0.08569880        0.90622882        0.05834568        0.00690578        0.00069092
       -9.95995996        1.10653590        0.09052713        0.94717375        0.06090440        0.00721093        0.00071968
       -9.94994995        1.15417983        0.09525722        0.98731086        0.06335789        0.00750431        0.00074955
       -9.93993994        1.20042107        0.09985116        1.02632053        0.06568526        0.00778377        0.00078035
       -9.92992993        1.24487767        0.10427066        1.06388156        0.06786632        0.00804726        0.00081188
       -9.91991992        1.28716908        0.10847742        1.09967308        0.06988180        0.00829287        0.00084391
       -9.90990991        1.32691912        0.11243358        1.13337697        0.07171357        0.00851881        0.00087619
       -9.89989990        1.36375987        0.11610224        1.16468087        0.07334490        0.00872345        0.00090841
       -9.88988989        1.39733628        0.11944805        1.19328189        0.07476077        0.00890531        0.00094026
       -9.87987988        1.42731172        0.12243787        1.21889117        0.07594812        0.00906315        0.00097141
       -9.86986987        1.45337429        0.12504154        1.24123912        0.07689623        0.00919591        0.00100148
       -9.85985986        1.47524368        0.12723253        1.26008128        0.07759694        0.00930281        0.00103011
       -9.84984985        1.49267824        0.12898866        1.27520441        0.07804493        0.00938331        0.00105693
       -9.83983984        1.50548203        0.13029268        1.28643268        0.07823792        0.00943717        0.00108158
       -9.82982983        1.51351119        0.13113283        1.29363346        0.07817676        0.00946444        0.00110370
       -9.81981982        1.51667946        0.13150308        1.29672244        0.07786546        0.00946549        0.00112298
       -9.80980981        1.51496239        0.13140340        1.29566770        0.07731117        0.00944095        0.00113916
       -9.79979980        1.50839998        0.13083968        1.29049257        0.07652397        0.00939175        0.00115201
       -9.78978979        1.49709753        0.12982355        1.28127692        0.07551665        0.00931905        0.00116136
       -9.77977978        1.48122474        0.12837200        1.26815699        0.07430441        0.00922423        0.00116713
       -9.76976977        1.46101293        0.12650685        1.25132347        0.07290447        0.00910887        0.00116926
       -9.75975976        1.43675063        0.12425415        1.23101828        0.07133571        0.00897467        0.00116782
       -9.74974975        1.40877769        0.12164342        1.20752971        0.06961822        0.00882345        0.00116289
       -9.73973974        1.37747814        0.11870691        1.18118657        0.06777290        0.00865709        0.00115467
       -9.72972973        1.34327211        0.11547890        1.15235122        0.06582111        0.00847751        0.00114337
       -9.71971972        1.30660705        0.11199493        1.12141190        0.06378428        0.00828663        0.00112930
       -9.70970971        1.26794853        0.10829123        1.08877455        0.06168362        0.00808636        0.00111277
       -9.69969970        1.22777092        0.10440407        1.05485429        0.05953982        0.00787857        0.00109416
       -9.68968969        1.18654813        0.10036936        1.02006697        0.05737286        0.00766508        0.00107385
       -9.67967968        1.14474464        0.09622220        0.98482076        0.05520174        0.00744768        0.00105225
       -9.66966967        1.10280700        0.09199658        0.94950821        0.05304438        0.00722808        0.00102976
       -9.65965966        1.06115611        0.08772513        0.91449888        0.05091741        0.00700792        0.00100676
       -9.64964965        1.02018029        0.08343894        0.88013286        0.04883609        0.00678876        0.00098365
       -9.63963964        0.98022955        0.07916736        0.84671521        0.04681412        0.00657209        0.00096077
       -9.62962963        0.94161104        0.07493786        0.81451177        0.04486365        0.00635931        0.00093845
       -9.61961962        0.90458603        0.07077598        0.78374628        0.04299510        0.00615171        0.00091696
       -9.60960961        0.86936849        0.06670511        0.75459914        0.04121720        0.00595047        0.00089657
       -9.59959960        0.83612532        0.06274650        0.72720775        0.03953693        0.00575666        0.00087749
       -9.58958959        0.80497837        0.05891912        0.70166859        0.03795956        0.00557121        0.00085989
       -9.57957958        0.77600807        0.05523964        0.67804085        0.03648873        0.00539493        0.00084392
       -9.56956957        0.74925868        0.05172236        0.65635153        0.03512658        0.00522850        0.00082971
       -9.55955956        0.72474479        0.04837929        0.63660180        0.03387387        0.00507247        0.00081736
       -9.54954955        0.70245887        0.04522012        0.61877424        0.03273026        0.00492728        0.00080698
       -9.53953954        0.68237940        0.04225239        0.60284065        0.03169447        0.00479325        0.00079863
       -9.52952953        0.66447923        0.03948157        0.58876993        0.03076464        0.00467065        0.00079244
       -9.51951952        0.64873369        0.03691126        0.57653575        0.02993854        0.00455965        0.00078849
       -9.50950951        0.63512804        0.03454335        0.56612345        0.02921389        0.00446043        0.00078692
       -9.49949950        0.62366381        0.03237828        0.55753589        0.02858864        0.00437314        0.00078785
       -9.48948949        0.61436377        0.03041520        0.55079790        0.02806122        0.00429798        0.00079147
       -9.47947948        0.60727527        0.02865222        0.54595918        0.02763074        0.00423519        0.00079793
       -9.46946947        0.60247170        0.02708655        0.54309540        0.02729717        0.00418513        0.00080745
       -9.45945946        0.60005216        0.02571469        0.54230755        0.02706142        0.00414826        0.00082024
       -9.44944945        0.60013918        0.02453250        0.54371958        0.02692541        0.00412518        0.00083651
       -9.43943944        0.60287480        0.02353531        0.54747433        0.02689203        0.00411665        0.00085649
       -9.42942943        0.60841491        0.02271788        0.55372806        0.02696501        0.00412357        0.00088038
       -9.41941942        0.61692229        0.02207445        0.56264367        0.02714878        0.00414701        0.00090838
       -9.40940941        0.62855846        0.02159862        0.57438285        0.02744819        0.00418816        0.00094065
       -9.39939940        0.64347456        0.02128326        0.58909746        0.02786818        0.00424832        0.00097732
       -9.38938939        0.66180162        0.02112048        0.60692035        0.02841347        0.00432885        0.00101847
       -9.37937938        0.68364049        0.02110141        0.62795576        0.02908808        0.00443112        0.00106411
       -9.36936937        0.70905158        0.02121618        0.65226987        0.02989493        0.00455640        0.00111420
       -9.35935936        0.73804500        0.02145378        0.67988138        0.03083537        0.00470587        0.00116861
       -9.34934935        0.77057122        0.02180202        0.71075287        0.03190878        0.00488043        0.00122713
       -9.33933934        0.80651273        0.02224753        0.74478292        0.03311213        0.00508069        0.00128947
       -9.32932933        0.84567722        0.02277577        0.78179969        0.03443969        0.00530685        0.00135523
       -9.31931932        0.88779251        0.02337112        0.82155612        0.03588275        0.00555859        0.00142393
       -9.30930931        0.93250397        0.02401704        0.86372736        0.03742951        0.00583506        0.00149500
       -9.29929930        0.97937451        0.02469623        0.90791072        0.03906503        0.00613476        0.00156777
       -9.28928929        1.02788779        0.02539094        0.95362848        0.04077133        0.00645554        0.00164150
       -9.27927928        1.07745469        0.02608323        1.00033382        0.04252769        0.00679456        0.00171539
       -9.26926927        1.12742320        0.02675533        1.04741997        0.04431098        0.00714835        0.00178856
       -9.25925926        1.17709164        0.02739000        1.09423253        0.04609620        0.00751280        0.00186011
       -9.24924925        1.22572491        0.02797092        1.14008454        0.04785707        0.00788324        0.00192913
       -9.23923924        1.27257323        0.02848306        1.18427411        0.04956677        0.00825459        0.00199471
       -9.22922923        1.31689272        0.02891302        1.22610369        0.05119863        0.00862142        0.00205596
       -9.21921922        1.35796688        0.02924942        1.26490032        0.05272696        0.00897813        0.00211205
       -9.20920921        1.39512805        0.02948308        1.30003585        0.05412780        0.00931911        0.00216222
       -9.19919920        1.42777777        0.02960731        1.33094620        0.05537958        0.00963888        0.00220580
       -9.18918919        1.45540500        0.02961799        1.35714865        0.05646381        0.00993231        0.00224224
       -9.17917918        1.47760135        0.02951364        1.37825631        0.05736557        0.01019471        0.00227112
       -9.16916917        1.49407241        0.02929537        1.39398892        0.05807393        0.01042205        0.00229215
       -9.15915916        1.50464481        0.02896678        1.40417968        0.05858216        0.01061102        0.00230517
       -9.14914915        1.50926857        0.02853376        1.40877760        0.05888785        0.01075918        0.00231018
       -9.13913914        1.50801487        0.02800417        1.40784547        0.05899289        0.01086501        0.00230733
       -9.12912913        1.50106933        0.02738762        1.40155370        0.05890320        0.01092794        0.00229687
       -9.11911912        1.48872149        0.02669500        1.39017042        0.05862850        0.01094836        0.00227921
       -9.10910911        1.47135106        0.02593818        1.37404867        0.05818180        0.01092758        0.00225483
       -9.09909910        1.44941183        0.02512961        1.35361125        0.05757890        0.01086774        0.00222433
       -9.08908909        1.42341412        0.02428194        1.32933425        0.05683779        0.01077177        0.00218836
       -9.07907908        1.39390668        0.02340768        1.30173014        0.05597803        0.01064321        0.00214763
       -9.06906907        1.36145895        0.02251890        1.27133103        0.05502004        0.01048609        0.00210289
       -9.05905906        1.32664425        0.02162702        1.23867306        0.05398453        0.01030478        0.00205487
       -9.04904905        1.29002469        0.02074251        1.20428225        0.05289179        0.01010383        0.00200431
       -9.03903904        1.25213809        0.01987486        1.16866233        0.05176117        0.00988780        0.00195193
       -9.02902903        1.21348726        0.01903237        1.13228482        0.05061054        0.00966113        0.00189840
       -9.01901902        1.17453170        0.01822215        1.09558135        0.04945590        0.00942798        0.00184432
       -9.00900901        1.13568175        0.01745011        1.05893827        0.04831099        0.00919214        0.00179024
       -8.99899900        1.09729511        0.01672092        1.02269350        0.04718715        0.00895692        0.00173662
       -8.98898899        1.05967538        0.01603810        0.98713521        0.04609312        0.00872508        0.00168386
       -8.97897898        1.02307264        0.01540405        0.95250236        0.04503513        0.00849883        0.00163227
       -8.96896897        0.98768560        0.01482013        0.91898666        0.04401697        0.00827978        0.00158206
       -8.95895896        0.95366507        0.01428671        0.88673574        0.04304022        0.00806899        0.00153340
       -8.94894895        0.92111863        0.01380331        0.85585731        0.04210460        0.00786703        0.00148637
       -8.93893894        0.89011598        0.01336866        0.82642397        0.04120833        0.00767401        0.00144100
       -8.92892893        0.86069492        0.01298078        0.79847857        0.04034861        0.00748969        0.00139727
       -8.91891892        0.83286755        0.01263712        0.77203967        0.03952205        0.00731359        0.00135513
       -8.90890891        0.80662646        0.01233463        0.74710707        0.03872520        0.00714505        0.00131450
       -8.89889890        0.78195067        0.01206991        0.72366711        0.03795497        0.00698338        0.00127531
       -8.88888889        0.75881108        0.01183927        0.70169743        0.03720903        0.00682789        0.00123746
       -8.87887888        0.73717514        0.01163888        0.68117124        0.03648609        0.00667802        0.00120090
       -8.86886887        0.71701071        0.01146488        0.66206068        0.03578620        0.00653337        0.00116558
       -8.85885886        0.69828876        0.01131345        0.64433929        0.03511078        0.00639376        0.00113148
       -8.84884885        0.68098502        0.01118095        0.62798355        0.03446268        0.00625922        0.00109861
       -8.83883884        0.66508044        0.01106399        0.61297335        0.03384605        0.00613004        0.00106700
       -8.82882883        0.65056056        0.01095948        0.59929153        0.03326614        0.00600668        0.00103672
       -8.81881882        0.63741396        0.01086472        0.58692256        0.03272901        0.00588982        0.00100785
       -8.80880881        0.62562982        0.01077738        0.57585053        0.03224119        0.00578023        0.00098050
       -8.79879880        0.61519505        0.01069554        0.56605668        0.03180931        0.00567876        0.00095476
       -8.78878879        0.60609095        0.01061768        0.55751656        0.03143966        0.00558630        0.00093075
       -8.77877878        0.59829003        0.01054260        0.55019734        0.03113788        0.00550365        0.00090857
       -8.76876877        0.59175301        0.01046939        0.54405528        0.03090851        0.00543153        0.00088830
       -8.75875876        0.58642629        0.01039734        0.53903362        0.03075479        0.00537052        0.00087002
       -8.74874875        0.58224027        0.01032587        0.53506130        0.03067838        0.00532097        0.00085375
       -8.73873874        0.57910849        0.01025441        0.53205229        0.03067921        0.00528306        0.00083953
       -8.72872873        0.57692776        0.01018234        0.52990600        0.03075540        0.00525670        0.00082732
       -8.71871872        0.57557931        0.01010888        0.52850847        0.03090329        0.00524159        0.00081708
       -8.70870871        0.57493091        0.01003307        0.52773444        0.03111749        0.00523717        0.00080874
       -8.69869870        0.57483982        0.00995370        0.52745022        0.03139100        0.00524270        0.00080220
       -8.68868869        0.57515632        0.00986929        0.52751702        0.03171547        0.00525723        0.00079732
       -8.67867868        0.57572781        0.00977814        0.52779470        0.03208135        0.00527966        0.00079397
       -8.66866867        0.57640292        0.00967834        0.52814564        0.03247819        0.00530876        0.00079198
       -8.65865866        0.57703562        0.00956789        0.52843837        0.03289494        0.00534322        0.00079120
       -8.64864865        0.57748900        0.00944473        0.52855096        0.03332018        0.00538169        0.00079143
       -8.63863864        0.57763843        0.00930693        0.52837381        0.03374241        0.00542277        0.00079252
       -8.62862863        0.57737409        0.00915273        0.52781167        0.03415029        0.00546512        0.00079428
       -8.61861862        0.57660258        0.00898074        0.52678498        0.03453292        0.00550740        0.00079654
       -8.60860861        0.57524783        0.00878998        0.52523034        0.03487997        0.00554837        0.00079915
       -8.59859860        0.57325109        0.00858003        0.52310030        0.03518193        0.00558688        0.00080195
       -8.58858859        0.57057031        0.00835105        0.52036244        0.03543019        0.00562185        0.00080479
       -8.57857858        0.56717902        0.00810386        0.51699810        0.03561719        0.00565235        0.00080753
       -8.56856857        0.56306482        0.00783989        0.51300079        0.03573654        0.00567754        0.00081006
       -8.55855856        0.55822785        0.00756121        0.50837459        0.03578304        0.00569675        0.00081225
       -8.54854855        0.55267933        0.00727042        0.50313269        0.03575280        0.00570941        0.00081400
       -8.53853854        0.54644047        0.00697058        0.49729628        0.03564327        0.00571511        0.00081522
       -8.52852853        0.53954170        0.00666510        0.49089389        0.03545331        0.00571356        0.00081584
       -8.51851852        0.53202251        0.00635760        0.48396126        0.03518321        0.00570466        0.00081578
       -8.50850851        0.52393181        0.00605182        0.47654172        0.03483483        0.00568844        0.00081500
       -8.49849850        0.51532865        0.00575145        0.46868704        0.03441154        0.00566512        0.00081350
       -8.48848849        0.50628342        0.00546007        0.46045860        0.03391840        0.00563507        0.00081128
       -8.47847848        0.49687908        0.00518103        0.45192868        0.03336210        0.00559890        0.00080837
       -8.46846847        0.48721247        0.00491743        0.44318178        0.03275104        0.00555737        0.00080485
