#  aims_uuid : F128D8B5-E5F3-407F-ADF6-DC6AC86BB935                                
#  angular momentum projected density of states for species Mo as calculated by FHI-aims 
# The energy reference for this output is the chemical potential, mu =      -5.106688 eV
#      Energy (eV)         total dos     l= 0              l= 1              l= 2              l= 3              l= 4
       -4.89331207        0.88784570        0.03550686        0.14491057        0.69350258        0.01218654        0.00173915
       -4.88330206        0.92989060        0.03983275        0.15445877        0.72105868        0.01270358        0.00183682
       -4.87329205        0.97141071        0.04451191        0.16410255        0.74762880        0.01323517        0.00193228
       -4.86328204        1.01208023        0.04954096        0.17375454        0.77298349        0.01377647        0.00202477
       -4.85327203        1.05158531        0.05491022        0.18332231        0.79691673        0.01432248        0.00211357
       -4.84326202        1.08962647        0.06060289        0.19270973        0.81924775        0.01486810        0.00219800
       -4.83325201        1.12592023        0.06659444        0.20181835        0.83982179        0.01540826        0.00227739
       -4.82324200        1.16020013        0.07285204        0.21054894        0.85851005        0.01593795        0.00235115
       -4.81323199        1.19221755        0.07933429        0.21880326        0.87520895        0.01645229        0.00241875
       -4.80322198        1.22174232        0.08599121        0.22648574        0.88983907        0.01694658        0.00247972
       -4.79321197        1.24856363        0.09276449        0.23350533        0.90234381        0.01741633        0.00253367
       -4.78320196        1.27249123        0.09958817        0.23977736        0.91268805        0.01785735        0.00258031
       -4.77319195        1.29335692        0.10638960        0.24522534        0.92085683        0.01826574        0.00261940
       -4.76318194        1.31101645        0.11309079        0.24978265        0.92685418        0.01863798        0.00265085
       -4.75317193        1.32535167        0.11961006        0.25339407        0.93070192        0.01897100        0.00267462
       -4.74316192        1.33627265        0.12586397        0.25601716        0.93243857        0.01926217        0.00269078
       -4.73315191        1.34371968        0.13176943        0.25762322        0.93211812        0.01950944        0.00269947
       -4.72314190        1.34766495        0.13724590        0.25819808        0.92980876        0.01971128        0.00270093
       -4.71313189        1.34811360        0.14221767        0.25774240        0.92559127        0.01986681        0.00269545
       -4.70312188        1.34510409        0.14661592        0.25627163        0.91955739        0.01997576        0.00268339
       -4.69311187        1.33870786        0.15038073        0.25381564        0.91180789        0.02003845        0.00266514
       -4.68310186        1.32902815        0.15346266        0.25041792        0.90245060        0.02005584        0.00264113
       -4.67309185        1.31619819        0.15582406        0.24613444        0.89159849        0.02002940        0.00261180
       -4.66308184        1.30037881        0.15743996        0.24103229        0.87936782        0.01996112        0.00257762
       -4.65307183        1.28175561        0.15829844        0.23518802        0.86587670        0.01985341        0.00253903
       -4.64306182        1.26053595        0.15840070        0.22868587        0.85124391        0.01970901        0.00249647
       -4.63305181        1.23694585        0.15776052        0.22161582        0.83558823        0.01953092        0.00245036
       -4.62304180        1.21122692        0.15640354        0.21407168        0.81902829        0.01932228        0.00240113
       -4.61303179        1.18363342        0.15436610        0.20614915        0.80168269        0.01908633        0.00234915
       -4.60302178        1.15442946        0.15169385        0.19794391        0.78367060        0.01882629        0.00229481
       -4.59301177        1.12388635        0.14844030        0.18954990        0.76511236        0.01854532        0.00223847
       -4.58300176        1.09228001        0.14466521        0.18105767        0.74613020        0.01824645        0.00218048
       -4.57299175        1.05988832        0.14043296        0.17255293        0.72684868        0.01793254        0.00212121
       -4.56298174        1.02698846        0.13581105        0.16411532        0.70739486        0.01760625        0.00206100
       -4.55297173        0.99385416        0.13086862        0.15581731        0.68789797        0.01727003        0.00200022
       -4.54296172        0.96075272        0.12567519        0.14772347        0.66848869        0.01692612        0.00193926
       -4.53295171        0.92794208        0.12029943        0.13988977        0.64929786        0.01657654        0.00187849
       -4.52294170        0.89566791        0.11480815        0.13236334        0.63045494        0.01622316        0.00181831
       -4.51293169        0.86416081        0.10926544        0.12518234        0.61208622        0.01586767        0.00175915
       -4.50292168        0.83363397        0.10373184        0.11837607        0.59431298        0.01551167        0.00170142
       -4.49291167        0.80428127        0.09826372        0.11196542        0.57724987        0.01515669        0.00164556
       -4.48290166        0.77627613        0.09291269        0.10596345        0.56100370        0.01480428        0.00159202
       -4.47289165        0.74977119        0.08772507        0.10037620        0.54567269        0.01445599        0.00154124
       -4.46288164        0.72489883        0.08274149        0.09520370        0.53134646        0.01411349        0.00149368
       -4.45287163        0.70177260        0.07799650        0.09044108        0.51810664        0.01377858        0.00144980
       -4.44286162        0.68048953        0.07351827        0.08607978        0.50602817        0.01345325        0.00141006
       -4.43285161        0.66113307        0.06932846        0.08210887        0.49518117        0.01313966        0.00137492
       -4.42284160        0.64377653        0.06544203        0.07851624        0.48563320        0.01284020        0.00134487
       -4.41283159        0.62848677        0.06186734        0.07528988        0.47745175        0.01255743        0.00132038
       -4.40282158        0.61532797        0.05860632        0.07241890        0.47070670        0.01229409        0.00130196
       -4.39281157        0.60436503        0.05565473        0.06989453        0.46547260        0.01205307        0.00129010
       -4.38280156        0.59566658        0.05300270        0.06771085        0.46183036        0.01183731        0.00128536
       -4.37279155        0.58930713        0.05063528        0.06586533        0.45986852        0.01164974        0.00128825
       -4.36278154        0.58536845        0.04853323        0.06435909        0.45968350        0.01149326        0.00129936
       -4.35277153        0.58393979        0.04667384        0.06319699        0.46137910        0.01137060        0.00131926
       -4.34276152        0.58511703        0.04503191        0.06238739        0.46506495        0.01128425        0.00134853
       -4.33275151        0.58900055        0.04358070        0.06194172        0.47085396        0.01123641        0.00138777
       -4.32274150        0.59569192        0.04229289        0.06187381        0.47885875        0.01122891        0.00143755
       -4.31273149        0.60528944        0.04114160        0.06219907        0.48918720        0.01126314        0.00149843
       -4.30272148        0.61788255        0.04010116        0.06293341        0.50193703        0.01134002        0.00157093
       -4.29271147        0.63354529        0.03914794        0.06409214        0.51718976        0.01145992        0.00165553
       -4.28270146        0.65232905        0.03826092        0.06568871        0.53500414        0.01162265        0.00175262
       -4.27269145        0.67425473        0.03742215        0.06773343        0.55540923        0.01182742        0.00186251
       -4.26268144        0.69930487        0.03661700        0.07023210        0.57839756        0.01207282        0.00198539
       -4.25267143        0.72741581        0.03583429        0.07318481        0.60391860        0.01235681        0.00212131
       -4.24266142        0.75847071        0.03506619        0.07658464        0.63187302        0.01267665        0.00227020
       -4.23265141        0.79229347        0.03430802        0.08041665        0.66210804        0.01302899        0.00243178
       -4.22264140        0.82864445        0.03355785        0.08465693        0.69441430        0.01340976        0.00260561
       -4.21263139        0.86721807        0.03281610        0.08927190        0.72852476        0.01381427        0.00279105
       -4.20262138        0.90764299        0.03208498        0.09421794        0.76411566        0.01423721        0.00298721
       -4.19261137        0.94948498        0.03136793        0.09944125        0.80081008        0.01467268        0.00319304
       -4.18260136        0.99225267        0.03066907        0.10487819        0.83818389        0.01511430        0.00340721
       -4.17259135        1.03540631        0.02999265        0.11045590        0.87577425        0.01555532        0.00362819
       -4.16258134        1.07836915        0.02934252        0.11609342        0.91309027        0.01598872        0.00385421
       -4.15257133        1.12054129        0.02872177        0.12170321        0.94962563        0.01640738        0.00408331
       -4.14256132        1.16131527        0.02813235        0.12719303        0.98487234        0.01680427        0.00431328
       -4.13255131        1.20009282        0.02757485        0.13246821        1.01833537        0.01717263        0.00454177
       -4.12254130        1.23630204        0.02704837        0.13743422        1.04954705        0.01750617        0.00476623
       -4.11253129        1.26941389        0.02655050        0.14199933        1.07808073        0.01779931        0.00498401
       -4.10252128        1.29895751        0.02607739        0.14607752        1.10356291        0.01804730        0.00519238
       -4.09251127        1.32453334        0.02562394        0.14959119        1.12568322        0.01824642        0.00538857
       -4.08250126        1.34582347        0.02518401        0.15247379        1.14420173        0.01839411        0.00556983
       -4.07249125        1.36259879        0.02475075        0.15467216        1.15895335        0.01848901        0.00573353
       -4.06248124        1.37472273        0.02431696        0.15614838        1.16984912        0.01853108        0.00587719
       -4.05247123        1.38215139        0.02387547        0.15688119        1.17687467        0.01852148        0.00599858
       -4.04246122        1.38493041        0.02341950        0.15686668        1.18008584        0.01846260        0.00609580
       -4.03245121        1.38318903        0.02294302        0.15611848        1.17960232        0.01835789        0.00616733
       -4.02244120        1.37713159        0.02244113        0.15466715        1.17559948        0.01821173        0.00621210
       -4.01243119        1.36702754        0.02191026        0.15255904        1.16829942        0.01802925        0.00622957
       -4.00242118        1.35320022        0.02134842        0.14985444        1.15796149        0.01781614        0.00621973
       -3.99241117        1.33601547        0.02075533        0.14662534        1.14487325        0.01757840        0.00618315
       -3.98240116        1.31587038        0.02013245        0.14295276        1.12934205        0.01732219        0.00612093
       -3.97239115        1.29318282        0.01948295        0.13892382        1.11168772        0.01705356        0.00603477
       -3.96238114        1.26838200        0.01881161        0.13462872        1.09223656        0.01677832        0.00592680
       -3.95237113        1.24190031        0.01812460        0.13015772        1.07131652        0.01650186        0.00579961
       -3.94236112        1.21416636        0.01742922        0.12559834        1.04925361        0.01622905        0.00565614
       -3.93235111        1.18559925        0.01673365        0.12103279        1.02636915        0.01596412        0.00549955
       -3.92234110        1.15660371        0.01604652        0.11653585        1.00297760        0.01571060        0.00533314
       -3.91233109        1.12756602        0.01537666        0.11217313        0.97938467        0.01547131        0.00516025
       -3.90232108        1.09885033        0.01473265        0.10799990        0.95588532        0.01524836        0.00498409
       -3.89231107        1.07079522        0.01412255        0.10406041        0.93276139        0.01504314        0.00480772
       -3.88230106        1.04371033        0.01355358        0.10038769        0.91027874        0.01485643        0.00463388
       -3.87229105        1.01787299        0.01303184        0.09700386        0.88868391        0.01468840        0.00446497
       -3.86228104        0.99352482        0.01256213        0.09392079        0.86820020        0.01453874        0.00430296
       -3.85227103        0.97086851        0.01214776        0.09114112        0.84902354        0.01440669        0.00414939
       -3.84226102        0.95006491        0.01179054        0.08865951        0.83131833        0.01429121        0.00400532
       -3.83225101        0.93123063        0.01149067        0.08646403        0.81521355        0.01419098        0.00387140
       -3.82224100        0.91443645        0.01124683        0.08453765        0.80079954        0.01410458        0.00374784
       -3.81223099        0.89970675        0.01105626        0.08285967        0.78812584        0.01403051        0.00363448
       -3.80222098        0.88702024        0.01091488        0.08140710        0.77720010        0.01396728        0.00353088
       -3.79221097        0.87631193        0.01081748        0.08015588        0.76798868        0.01391353        0.00343636
       -3.78220096        0.86747658        0.01075797        0.07908197        0.76041860        0.01386800        0.00335005
       -3.77219095        0.86037353        0.01072954        0.07816215        0.75438117        0.01382966        0.00327100
       -3.76218094        0.85483272        0.01072501        0.07737472        0.74973706        0.01379769        0.00319825
       -3.75217093        0.85066181        0.01073700        0.07669995        0.74632253        0.01377151        0.00313083
       -3.74216092        0.84765393        0.01075826        0.07612031        0.74395669        0.01375080        0.00306787
       -3.73215091        0.84559596        0.01078187        0.07562064        0.74244936        0.01373550        0.00300860
       -3.72214090        0.84427677        0.01080150        0.07518812        0.74160901        0.01372575        0.00295238
       -3.71213089        0.84349507        0.01081157        0.07481217        0.74125069        0.01372191        0.00289873
       -3.70212088        0.84306665        0.01080743        0.07448427        0.74120313        0.01372452        0.00284730
       -3.69211087        0.84283033        0.01078544        0.07419777        0.74131504        0.01373420        0.00279788
       -3.68210086        0.84265271        0.01074307        0.07394763        0.74145995        0.01375165        0.00275041
       -3.67209085        0.84243118        0.01067887        0.07373021        0.74153961        0.01377757        0.00270493
       -3.66208084        0.84209517        0.01059246        0.07354298        0.74148562        0.01381256        0.00266154
       -3.65207083        0.84160559        0.01048444        0.07338427        0.74125935        0.01385707        0.00262045
       -3.64206082        0.84095257        0.01035623        0.07325304        0.74085010        0.01391131        0.00258189
       -3.63205081        0.84015149        0.01020993        0.07314857        0.74027170        0.01397518        0.00254612
       -3.62204080        0.83923781        0.01004815        0.07307019        0.73955788        0.01404819        0.00251338
       -3.61203079        0.83826079        0.00987380        0.07301702        0.73875662        0.01412941        0.00248394
       -3.60202078        0.83727676        0.00968989        0.07298763        0.73792385        0.01421739        0.00245800
       -3.59201077        0.83634220        0.00949938        0.07297978        0.73711709        0.01431023        0.00243572
       -3.58200076        0.83550711        0.00930498        0.07299014        0.73638931        0.01440547        0.00241721
       -3.57199075        0.83480921        0.00910908        0.07301402        0.73578335        0.01450024        0.00240252
       -3.56198074        0.83426911        0.00891360        0.07304526        0.73532740        0.01459125        0.00239161
       -3.55197073        0.83388689        0.00871999        0.07307602        0.73503158        0.01467493        0.00238437
       -3.54196072        0.83364019        0.00852919        0.07309685        0.73488599        0.01474756        0.00238060
       -3.53195071        0.83348382        0.00834166        0.07309669        0.73486002        0.01480542        0.00238004
       -3.52194070        0.83335085        0.00815741        0.07306313        0.73490305        0.01484494        0.00238231
       -3.51193069        0.83315512        0.00797612        0.07298269        0.73494641        0.01486291        0.00238700
       -3.50192068        0.83279479        0.00779718        0.07284121        0.73490621        0.01485658        0.00239361
       -3.49191067        0.83215676        0.00761980        0.07262442        0.73468709        0.01482386        0.00240159
       -3.48190066        0.83112169        0.00744313        0.07231847        0.73418632        0.01476343        0.00241035
       -3.47189065        0.82956927        0.00726632        0.07191053        0.73329834        0.01467480        0.00241929
       -3.46188064        0.82738351        0.00708859        0.07138948        0.73191928        0.01455837        0.00242778
       -3.45187063        0.82445793        0.00690935        0.07074649        0.72995142        0.01441543        0.00243523
       -3.44186062        0.82070037        0.00672815        0.06997556        0.72730747        0.01424812        0.00244107
       -3.43185061        0.81603745        0.00654482        0.06907399        0.72391454        0.01405931        0.00244479
       -3.42184060        0.81041849        0.00635938        0.06804279        0.71971783        0.01385256        0.00244593
       -3.41183059        0.80381893        0.00617211        0.06688684        0.71468391        0.01363190        0.00244417
       -3.40182058        0.79624320        0.00598352        0.06561506        0.70880362        0.01340174        0.00243926
       -3.39181057        0.78772695        0.00579432        0.06424037        0.70209453        0.01316666        0.00243107
       -3.38180056        0.77833863        0.00560541        0.06277948        0.69460282        0.01293129        0.00241962
       -3.37179055        0.76818028        0.00541788        0.06125262        0.68640455        0.01270017        0.00240506
       -3.36178054        0.75738744        0.00523293        0.05968319        0.67760606        0.01247761        0.00238766
