#  aims_uuid : F128D8B5-E5F3-407F-ADF6-DC6AC86BB935                                
#  angular momentum projected density of states for species S as calculated by FHI-aims 
# The energy reference for this output is the vacuum level =       0.000000 eV
#      Energy (eV)         total dos     l= 0              l= 1              l= 2              l= 3              l= 4
      -10.00000000        1.06597927        0.07820209        0.92717737        0.05357578        0.00642049        0.00060354
       -9.98998999        1.11480421        0.08237059        0.96861338        0.05645725        0.00673128        0.00063171
       -9.97997998        1.16247032        0.08645320        1.00904309        0.05927795        0.00703422        0.00066186
       -9.96996997        1.20862414        0.09042673        1.04815859        0.06201763        0.00732736        0.00069383
       -9.95995996        1.25292774        0.09426878        1.08566639        0.06465630        0.00760884        0.00072743
       -9.94994995        1.29506080        0.09795780        1.12128944        0.06717425        0.00787689        0.00076241
       -9.93993994        1.33472210        0.10147309        1.15476852        0.06955212        0.00812983        0.00079853
       -9.92992993        1.37163072        0.10479491        1.18586324        0.07177101        0.00836609        0.00083546
       -9.91991992        1.40552716        0.10790451        1.21435293        0.07381263        0.00858421        0.00087288
       -9.90990991        1.43617452        0.11078421        1.24003756        0.07565950        0.00878284        0.00091042
       -9.89989990        1.46336012        0.11341749        1.26273891        0.07729524        0.00896081        0.00094767
       -9.88988989        1.48689731        0.11578905        1.28230203        0.07870493        0.00911707        0.00098423
       -9.87987988        1.50662767        0.11788486        1.29859692        0.07987546        0.00925077        0.00101966
       -9.86986987        1.52242328        0.11969222        1.31152039        0.08079594        0.00936123        0.00105350
       -9.85985986        1.53418909        0.12119971        1.32099795        0.08145808        0.00944801        0.00108534
       -9.84984985        1.54186494        0.12239728        1.32698553        0.08185655        0.00951085        0.00111473
       -9.83983984        1.54542718        0.12327616        1.32947076        0.08198923        0.00954974        0.00114128
       -9.82982983        1.54488967        0.12382895        1.32847380        0.08185740        0.00956490        0.00116462
       -9.81981982        1.54030398        0.12404955        1.32404744        0.08146580        0.00955675        0.00118443
       -9.80980981        1.53175879        0.12393335        1.31627647        0.08082258        0.00952593        0.00120045
       -9.79979980        1.51937845        0.12347727        1.30527639        0.07993906        0.00947325        0.00121248
       -9.78978979        1.50332095        0.12268003        1.29119136        0.07882947        0.00939970        0.00122039
       -9.77977978        1.48377522        0.12154238        1.27419179        0.07751054        0.00930640        0.00122412
       -9.76976977        1.46095811        0.12006747        1.25447138        0.07600102        0.00919457        0.00122368
       -9.75975976        1.43511116        0.11826119        1.23224414        0.07432113        0.00906554        0.00121916
       -9.74974975        1.40649736        0.11613261        1.20774127        0.07249209        0.00892067        0.00121072
       -9.73973974        1.37539794        0.11369427        1.18120814        0.07053557        0.00876138        0.00119858
       -9.72972973        1.34210937        0.11096251        1.15290148        0.06847326        0.00858911        0.00118301
       -9.71971972        1.30694037        0.10795766        1.12308664        0.06632641        0.00840533        0.00116433
       -9.70970971        1.27020915        0.10470407        1.09203508        0.06411558        0.00821151        0.00114290
       -9.69969970        1.23224042        0.10122995        1.06002185        0.06186037        0.00800915        0.00111910
       -9.68968969        1.19336247        0.09756705        1.02732309        0.05957924        0.00779975        0.00109334
       -9.67967968        1.15390383        0.09375014        0.99421341        0.05728944        0.00758483        0.00106602
       -9.66966967        1.11418980        0.08981624        0.96096305        0.05500699        0.00736596        0.00103757
       -9.65965966        1.07453852        0.08580380        0.92783495        0.05274671        0.00714468        0.00100837
       -9.64964965        1.03525694        0.08175170        0.89508159        0.05052221        0.00692260        0.00097884
       -9.63963964        0.99663670        0.07769818        0.86294186        0.04834603        0.00670130        0.00094933
       -9.62962963        0.95895009        0.07367982        0.83163806        0.04622965        0.00648236        0.00092021
       -9.61961962        0.92244652        0.06973055        0.80137322        0.04418358        0.00626736        0.00089181
       -9.60960961        0.88734957        0.06588084        0.77232907        0.04221742        0.00605780        0.00086444
       -9.59959960        0.85385509        0.06215699        0.74466471        0.04033989        0.00585512        0.00083839
       -9.58958959        0.82213041        0.05858068        0.71851630        0.03855883        0.00566069        0.00081392
       -9.57957958        0.79231497        0.05516876        0.69399789        0.03688131        0.00547572        0.00079128
       -9.56956957        0.76452219        0.05193328        0.67120332        0.03531354        0.00530132        0.00077073
       -9.55955956        0.73884279        0.04888172        0.65020921        0.03386097        0.00513841        0.00075248
       -9.54954955        0.71534918        0.04601747        0.63107892        0.03252827        0.00498777        0.00073675
       -9.53953954        0.69410074        0.04334041        0.61386720        0.03131937        0.00484999        0.00072377
       -9.52952953        0.67514961        0.04084768        0.59862518        0.03023749        0.00472550        0.00071376
       -9.51951952        0.65854659        0.03853445        0.58540545        0.02928518        0.00461458        0.00070693
       -9.50950951        0.64434678        0.03639469        0.57426685        0.02846437        0.00451736        0.00070351
       -9.49949950        0.63261440        0.03442192        0.56527845        0.02777645        0.00443387        0.00070372
       -9.48948949        0.62342664        0.03260986        0.55852265        0.02722228        0.00436406        0.00070778
       -9.47947948        0.61687596        0.03095293        0.55409694        0.02680233        0.00430784        0.00071592
       -9.46946947        0.61307089        0.02944664        0.55211414        0.02651666        0.00426512        0.00072834
       -9.45945946        0.61213496        0.02808774        0.55270112        0.02636503        0.00423582        0.00074525
       -9.44944945        0.61420389        0.02687432        0.55599582        0.02634695        0.00421997        0.00076683
       -9.43943944        0.61942093        0.02580562        0.56214267        0.02646168        0.00421769        0.00079326
       -9.42942943        0.62793062        0.02488185        0.57128655        0.02670830        0.00422925        0.00082467
       -9.41941942        0.63987105        0.02410379        0.58356538        0.02708565        0.00425507        0.00086116
       -9.40940941        0.65536494        0.02347234        0.59910171        0.02759235        0.00429573        0.00090281
       -9.39939940        0.67450988        0.02298808        0.61799351        0.02822671        0.00435196        0.00094962
       -9.38938939        0.69736810        0.02265075        0.64030451        0.02898661        0.00442466        0.00100157
       -9.37937938        0.72395609        0.02245876        0.66605455        0.02986943        0.00451479        0.00105855
       -9.36936937        0.75423478        0.02240878        0.69521036        0.03087183        0.00462341        0.00112040
       -9.35935936        0.78810043        0.02249539        0.72767710        0.03198953        0.00475153        0.00118688
       -9.34934935        0.82537709        0.02271079        0.76329138        0.03321716        0.00490010        0.00125766
       -9.33933934        0.86581090        0.02304470        0.80181601        0.03454797        0.00506989        0.00133232
       -9.32932933        0.90906671        0.02348429        0.84293701        0.03597360        0.00526144        0.00141038
       -9.31931932        0.95472764        0.02401432        0.88626329        0.03748390        0.00547491        0.00149122
       -9.30930931        1.00229765        0.02461735        0.93132930        0.03906675        0.00571007        0.00157417
       -9.29929930        1.05120746        0.02527408        0.97760078        0.04070795        0.00596620        0.00165845
       -9.28928929        1.10082387        0.02596383        1.02448364        0.04239118        0.00624202        0.00174321
       -9.27927928        1.15046230        0.02666504        1.07133596        0.04409811        0.00653567        0.00182752
       -9.26926927        1.19940218        0.02735589        1.11748265        0.04580853        0.00684470        0.00191040
       -9.25925926        1.24690488        0.02801491        1.16223238        0.04750065        0.00716609        0.00199084
       -9.24924925        1.29223328        0.02862164        1.20489607        0.04915150        0.00749626        0.00206781
       -9.23923924        1.33467225        0.02915718        1.24480625        0.05073739        0.00783115        0.00214028
       -9.22922923        1.37354924        0.02960479        1.28133636        0.05223450        0.00816632        0.00220727
       -9.21921922        1.40825385        0.02995031        1.31391914        0.05361953        0.00849702        0.00226784
       -9.20920921        1.43825558        0.03018255        1.34206320        0.05487030        0.00881838        0.00232115
       -9.19919920        1.46311889        0.03029350        1.36536699        0.05596649        0.00912545        0.00236646
       -9.18918919        1.48251484        0.03027846        1.38352960        0.05689018        0.00941342        0.00240318
       -9.17917918        1.49622881        0.03013602        1.39635772        0.05762651        0.00967774        0.00243083
       -9.16916917        1.50416397        0.02986793        1.40376863        0.05816408        0.00991420        0.00244913
       -9.15915916        1.50634049        0.02947883        1.40578920        0.05849538        0.01011913        0.00245795
       -9.14914915        1.50289053        0.02897596        1.40255082        0.05861698        0.01028945        0.00245732
       -9.13913914        1.49404956        0.02836868        1.39428097        0.05852967        0.01042276        0.00244747
       -9.12912913        1.48014435        0.02766810        1.38129166        0.05823840        0.01051743        0.00242877
       -9.11911912        1.46157853        0.02688654        1.36396557        0.05775210        0.01057260        0.00240172
       -9.10910911        1.43881631        0.02603713        1.34274058        0.05708341        0.01058821        0.00236698
       -9.09909910        1.41236535        0.02513332        1.31809348        0.05624825        0.01056501        0.00232529
       -9.08908909        1.38275937        0.02418850        1.29052359        0.05526531        0.01050447        0.00227751
       -9.07907908        1.35054142        0.02321567        1.26053700        0.05415550        0.01040876        0.00222451
       -9.06906907        1.31624836        0.02222713        1.22863203        0.05294133        0.01028065        0.00216722
       -9.05905906        1.28039702        0.02123431        1.19528644        0.05164624        0.01012345        0.00210658
       -9.04904905        1.24347260        0.02024759        1.16094662        0.05029401        0.00994087        0.00204350
       -9.03903904        1.20591933        0.01927624        1.12601924        0.04890809        0.00973690        0.00197886
       -9.02902903        1.16813378        0.01832834        1.09086521        0.04751101        0.00951574        0.00191348
       -9.01901902        1.13046060        0.01741086        1.05579616        0.04612387        0.00928162        0.00184809
       -9.00900901        1.09319082        0.01652962        1.02107321        0.04476589        0.00903873        0.00178337
       -8.99899900        1.05656232        0.01568941        0.98690796        0.04345399        0.00879108        0.00171988
       -8.98898899        1.02076243        0.01489405        0.95346534        0.04220251        0.00854244        0.00165809
       -8.97897898        0.98593223        0.01414643        0.92086814        0.04102306        0.00829622        0.00159837
       -8.96896897        0.95217222        0.01344865        0.88920276        0.03992436        0.00805544        0.00154101
       -8.95895896        0.91954903        0.01280202        0.85852585        0.03891234        0.00782265        0.00148618
       -8.94894895        0.88810271        0.01220715        0.82887145        0.03799017        0.00759994        0.00143400
       -8.93893894        0.85785416        0.01166399        0.80025822        0.03715852        0.00738892        0.00138450
       -8.92892893        0.82881240        0.01117190        0.77269631        0.03641580        0.00719072        0.00133767
       -8.91891892        0.80098119        0.01072962        0.74619357        0.03575854        0.00700603        0.00129344
       -8.90890891        0.77436468        0.01033535        0.72076075        0.03518172        0.00683515        0.00125171
       -8.89889890        0.74897185        0.00998677        0.69641544        0.03467924        0.00667804        0.00121236
       -8.88888889        0.72481956        0.00968107        0.67318452        0.03424430        0.00653439        0.00117528
       -8.87887888        0.70193399        0.00941501        0.65110517        0.03386978        0.00640367        0.00114035
       -8.86886887        0.68035061        0.00918494        0.63022436        0.03354864        0.00628522        0.00110745
       -8.85885886        0.66011280        0.00898691        0.61059693        0.03327420        0.00617827        0.00107648
       -8.84884885        0.64126915        0.00881670        0.59228258        0.03304040        0.00608207        0.00104740
       -8.83883884        0.62386984        0.00866994        0.57534196        0.03284196        0.00599585        0.00102013
       -8.82882883        0.60796254        0.00854220        0.55983228        0.03267448        0.00591891        0.00099467
       -8.81881882        0.59358791        0.00842908        0.54580269        0.03253448        0.00585065        0.00097100
       -8.80880881        0.58077529        0.00832631        0.53328992        0.03241937        0.00579054        0.00094915
       -8.79879880        0.56953884        0.00822984        0.52231437        0.03232734        0.00573816        0.00092913
       -8.78878879        0.55987430        0.00813596        0.51287699        0.03225720        0.00569317        0.00091098
       -8.77877878        0.55175674        0.00804132        0.50495710        0.03220829        0.00565531        0.00089472
       -8.76876877        0.54513925        0.00794306        0.49851121        0.03218022        0.00562437        0.00088037
       -8.75875876        0.53995267        0.00783880        0.49347296        0.03217275        0.00560019        0.00086796
       -8.74874875        0.53610636        0.00772668        0.48975403        0.03218559        0.00558259        0.00085747
       -8.73873874        0.53348981        0.00760535        0.48724594        0.03221827        0.00557137        0.00084888
       -8.72872873        0.53197502        0.00747399        0.48582256        0.03227000        0.00556633        0.00084214
       -8.71871872        0.53141943        0.00733221        0.48534323        0.03233966        0.00556715        0.00083718
       -8.70870871        0.53166931        0.00718007        0.48565619        0.03242564        0.00557349        0.00083391
       -8.69869870        0.53256327        0.00701799        0.48660222        0.03252592        0.00558492        0.00083221
       -8.68868869        0.53393592        0.00684665        0.48801836        0.03263804        0.00560092        0.00083195
       -8.67867868        0.53562144        0.00666700        0.48974146        0.03275911        0.00562088        0.00083299
       -8.66866867        0.53745696        0.00648010        0.49161166        0.03288588        0.00564416        0.00083515
       -8.65865866        0.53928571        0.00628716        0.49347547        0.03301479        0.00567002        0.00083828
       -8.64864865        0.54095988        0.00608938        0.49518861        0.03314201        0.00569770        0.00084219
       -8.63863864        0.54234304        0.00588800        0.49661847        0.03326347        0.00572639        0.00084671
       -8.62862863        0.54331225        0.00568421        0.49764613        0.03337495        0.00575528        0.00085168
       -8.61861862        0.54375967        0.00547916        0.49816797        0.03347207        0.00578355        0.00085692
       -8.60860861        0.54359374        0.00527391        0.49809685        0.03355033        0.00581039        0.00086227
       -8.59859860        0.54273999        0.00506948        0.49736277        0.03360515        0.00583501        0.00086757
       -8.58858859        0.54114125        0.00486681        0.49591314        0.03363194        0.00585666        0.00087269
       -8.57857858        0.53875759        0.00466678        0.49371259        0.03362611        0.00587465        0.00087747
       -8.56856857        0.53556587        0.00447021        0.49074240        0.03358316        0.00588830        0.00088180
       -8.55855856        0.53155891        0.00427789        0.48699962        0.03349880        0.00589705        0.00088556
       -8.54854855        0.52674458        0.00409058        0.48249590        0.03336911        0.00590036        0.00088863
       -8.53853854        0.52114467        0.00390902        0.47725628        0.03319064        0.00589780        0.00089093
       -8.52852853        0.51479387        0.00373391        0.47131784        0.03296069        0.00588904        0.00089239
       -8.51851852        0.50773877        0.00356595        0.46472854        0.03267748        0.00587387        0.00089293
       -8.50850851        0.50003712        0.00340584        0.45754615        0.03234042        0.00585218        0.00089253
       -8.49849850        0.49175727        0.00325424        0.44983747        0.03195033        0.00582406        0.00089117
       -8.48848849        0.48297797        0.00311182        0.44167785        0.03150968        0.00578973        0.00088888
       -8.47847848        0.47378835        0.00297926        0.43315100        0.03102276        0.00574961        0.00088573
       -8.46846847        0.46428819        0.00285724        0.42434900        0.03049582        0.00570434        0.00088179
