#  aims_uuid : F128D8B5-E5F3-407F-ADF6-DC6AC86BB935                                
#  angular momentum projected density of states for species S as calculated by FHI-aims 
# The energy reference for this output is the chemical potential, mu =      -5.106688 eV
#      Energy (eV)         total dos     l= 0              l= 1              l= 2              l= 3              l= 4
       -4.89331207        0.95231404        0.07241519        0.82041822        0.05301772        0.00587470        0.00058820
       -4.88330206        1.00713818        0.07750433        0.86680214        0.05603334        0.00618668        0.00061168
       -4.87329205        1.06198014        0.08261583        0.91323672        0.05899656        0.00649424        0.00063679
       -4.86328204        1.11640284        0.08771177        0.95934947        0.06188307        0.00679510        0.00066343
       -4.85327203        1.16996226        0.09275295        1.00476190        0.06466886        0.00708702        0.00069152
       -4.84326202        1.22221191        0.09769927        1.04909348        0.06733039        0.00736785        0.00072093
       -4.83325201        1.27270711        0.10250999        1.09196531        0.06984479        0.00763551        0.00075151
       -4.82324200        1.32100901        0.10714417        1.13300369        0.07219008        0.00788800        0.00078306
       -4.81323199        1.36668893        0.11156102        1.17184370        0.07434538        0.00812344        0.00081538
       -4.80322198        1.40933284        0.11572041        1.20813300        0.07629118        0.00834004        0.00084822
       -4.79321197        1.44854642        0.11958336        1.24153601        0.07800963        0.00853614        0.00088128
       -4.78320196        1.48396066        0.12311269        1.27173859        0.07948493        0.00871020        0.00091425
       -4.77319195        1.51523797        0.12627365        1.29845304        0.08070362        0.00886089        0.00094678
       -4.76318194        1.54207866        0.12903458        1.32142356        0.08165499        0.00898704        0.00097849
       -4.75317193        1.56422752        0.13136761        1.34043175        0.08233141        0.00908774        0.00100901
       -4.74316192        1.58148012        0.13324932        1.35530197        0.08272859        0.00916230        0.00103794
       -4.73315191        1.59368846        0.13466131        1.36590610        0.08284581        0.00921035        0.00106490
       -4.72314190        1.60076557        0.13559065        1.37216759        0.08268601        0.00923181        0.00108951
       -4.71313189        1.60268857        0.13603025        1.37406415        0.08225580        0.00922692        0.00111145
       -4.70312188        1.59950011        0.13597903        1.37162915        0.08156527        0.00919625        0.00113040
       -4.69311187        1.59130781        0.13544191        1.36495129        0.08062778        0.00914070        0.00114613
       -4.68310186        1.57828183        0.13442964        1.35417275        0.07945954        0.00906145        0.00115845
       -4.67309185        1.56065059        0.13295850        1.33948568        0.07807922        0.00895997        0.00116722
       -4.66308184        1.53869494        0.13104983        1.32112741        0.07650733        0.00883797        0.00117240
       -4.65307183        1.51274102        0.12872940        1.29937447        0.07476578        0.00869736        0.00117400
       -4.64306182        1.48315235        0.12602686        1.27453594        0.07287724        0.00854021        0.00117211
       -4.63305181        1.45032149        0.12297495        1.24694628        0.07086469        0.00836870        0.00116686
       -4.62304180        1.41466155        0.11960887        1.21695817        0.06875095        0.00818509        0.00115847
       -4.61303179        1.37659818        0.11596555        1.18493548        0.06655830        0.00799166        0.00114720
       -4.60302178        1.33656195        0.11208305        1.15124673        0.06430816        0.00779067        0.00113334
       -4.59301177        1.29498157        0.10799995        1.11625909        0.06202093        0.00758436        0.00111723
       -4.58300176        1.25227781        0.10375484        1.08033307        0.05971577        0.00737488        0.00109924
       -4.57299175        1.20885829        0.09938581        1.04381785        0.05741060        0.00716431        0.00107972
       -4.56298174        1.16511297        0.09493009        1.00704723        0.05512201        0.00695457        0.00105906
       -4.55297173        1.12141031        0.09042363        0.97033626        0.05286528        0.00674750        0.00103764
       -4.54296172        1.07809403        0.08590078        0.93397832        0.05065438        0.00654474        0.00101581
       -4.53295171        1.03548043        0.08139401        0.89824271        0.04850199        0.00634781        0.00099391
       -4.52294170        0.99385624        0.07693360        0.86337286        0.04641951        0.00615802        0.00097226
       -4.51293169        0.95347706        0.07254742        0.82958495        0.04441702        0.00597651        0.00095116
       -4.50292168        0.91456642        0.06826073        0.79706727        0.04250333        0.00580423        0.00093086
       -4.49291167        0.87731567        0.06409598        0.76598022        0.04068595        0.00564192        0.00091160
       -4.48290166        0.84188469        0.06007277        0.73645711        0.03897108        0.00549013        0.00089359
       -4.47289165        0.80840344        0.05620774        0.70860584        0.03736366        0.00534920        0.00087700
       -4.46288164        0.77697468        0.05251460        0.68251136        0.03586740        0.00521930        0.00086202
       -4.45287163        0.74767748        0.04900429        0.65823908        0.03448490        0.00510043        0.00084878
       -4.44286162        0.72057163        0.04568504        0.63583898        0.03321774        0.00499243        0.00083743
       -4.43285161        0.69570285        0.04256270        0.61535028        0.03206668        0.00489505        0.00082812
       -4.42284160        0.67310833        0.03964098        0.59680656        0.03103184        0.00480795        0.00082100
       -4.41283159        0.65282262        0.03692177        0.58024096        0.03011292        0.00473074        0.00081623
       -4.40282158        0.63488326        0.03440548        0.56569125        0.02930948        0.00466307        0.00081397
       -4.39281157        0.61933609        0.03209143        0.55320446        0.02862115        0.00460463        0.00081443
       -4.38280156        0.60623972        0.02997809        0.54284074        0.02804787        0.00455521        0.00081780
       -4.37279155        0.59566891        0.02806344        0.53467627        0.02759012        0.00451476        0.00082432
       -4.36278154        0.58771669        0.02634514        0.52880490        0.02724902        0.00448343        0.00083420
       -4.35277153        0.58249487        0.02482068        0.52533839        0.02702650        0.00446160        0.00084771
       -4.34276152        0.58013287        0.02348749        0.52440509        0.02692533        0.00444988        0.00086506
       -4.33275151        0.58077477        0.02234294        0.52614709        0.02694905        0.00444919        0.00088651
       -4.32274150        0.58457462        0.02138420        0.53071561        0.02710186        0.00446068        0.00091227
       -4.31273149        0.59168991        0.02060818        0.53826497        0.02738843        0.00448580        0.00094252
       -4.30272148        0.60227352        0.02001124        0.54894501        0.02781364        0.00452621        0.00097742
       -4.29271147        0.61646435        0.01958904        0.56289234        0.02838214        0.00458376        0.00101708
       -4.28270146        0.63437677        0.01933619        0.58022059        0.02909804        0.00466041        0.00106154
       -4.27269145        0.65608947        0.01924604        0.60101009        0.02996435        0.00475820        0.00111080
       -4.26268144        0.68163417        0.01931041        0.62529737        0.03098253        0.00487911        0.00116475
       -4.25267143        0.71098454        0.01951939        0.65306493        0.03215202        0.00502497        0.00122323
       -4.24266142        0.74404625        0.01986120        0.68423196        0.03346972        0.00519740        0.00128597
       -4.23265141        0.78064842        0.02032209        0.71864649        0.03492961        0.00539763        0.00135261
       -4.22264140        0.82053744        0.02088637        0.75607950        0.03652243        0.00562642        0.00142270
       -4.21263139        0.86337340        0.02153655        0.79622168        0.03823547        0.00588400        0.00149570
       -4.20262138        0.90872995        0.02225349        0.83868312        0.04005245        0.00616992        0.00157097
       -4.19261137        0.95609760        0.02301679        0.88299640        0.04195365        0.00648300        0.00164777
       -4.18260136        1.00489092        0.02380513        0.92862309        0.04391610        0.00682130        0.00172530
       -4.17259135        1.05445937        0.02459677        0.97496381        0.04591402        0.00718209        0.00180269
       -4.16258134        1.10410167        0.02537007        1.02137143        0.04791932        0.00756183        0.00187901
       -4.15257133        1.15308307        0.02610410        1.06716707        0.04990234        0.00795626        0.00195329
       -4.14256132        1.20065497        0.02677915        1.11165824        0.05183258        0.00836041        0.00202457
       -4.13255131        1.24607581        0.02737729        1.15415825        0.05367963        0.00876875        0.00209188
       -4.12254130        1.28863247        0.02788287        1.19400601        0.05541401        0.00917528        0.00215430
       -4.11253129        1.32766092        0.02828294        1.23058528        0.05700805        0.00957372        0.00221093
       -4.10252128        1.36256522        0.02856750        1.26334228        0.05843677        0.00995765        0.00226101
       -4.09251127        1.39283385        0.02872979        1.29180099        0.05967854        0.01032070        0.00230383
       -4.08250126        1.41805272        0.02876625        1.31557514        0.06071574        0.01065676        0.00233883
       -4.07249125        1.43791408        0.02867654        1.33437667        0.06153515        0.01096013        0.00236559
       -4.06248124        1.45222131        0.02846335        1.34802012        0.06212829        0.01122572        0.00238383
       -4.05247123        1.46088923        0.02813208        1.35642304        0.06249144        0.01144922        0.00239344
       -4.04246122        1.46394046        0.02769054        1.35960260        0.06262567        0.01162720        0.00239445
       -4.03245121        1.46149804        0.02714845        1.35766879        0.06253652        0.01175722        0.00238706
       -4.02244120        1.45377511        0.02651704        1.35081485        0.06223367        0.01183794        0.00237162
       -4.01243119        1.44106231        0.02580854        1.33930563        0.06173046        0.01186908        0.00234860
       -4.00242118        1.42371378        0.02503572        1.32346465        0.06104334        0.01185149        0.00231859
       -3.99241117        1.40213261        0.02421149        1.30366062        0.06019120        0.01178702        0.00228228
       -3.98240116        1.37675634        0.02334848        1.28029411        0.05919479        0.01167851        0.00224044
       -3.97239115        1.34804337        0.02245875        1.25378507        0.05807603        0.01152964        0.00219388
       -3.96238114        1.31646061        0.02155357        1.22456146        0.05685738        0.01134476        0.00214344
       -3.95237113        1.28247270        0.02064318        1.19304949        0.05556127        0.01112878        0.00208997
       -3.94236112        1.24653308        0.01973674        1.15966557        0.05420951        0.01088697        0.00203429
       -3.93235111        1.20907689        0.01884223        1.12480988        0.05282286        0.01062475        0.00197718
       -3.92234110        1.17051557        0.01796647        1.08886164        0.05142053        0.01034755        0.00191939
       -3.91233109        1.13123304        0.01711519        1.05217580        0.05001989        0.01006060        0.00186156
       -3.90232108        1.09158322        0.01629301        1.01508094        0.04863616        0.00976883        0.00180428
       -3.89231107        1.05188879        0.01550363        0.97787824        0.04728221        0.00947667        0.00174803
       -3.88230106        1.01244072        0.01474986        0.94084118        0.04596845        0.00918800        0.00169322
       -3.87229105        0.97349866        0.01403374        0.90421591        0.04470282        0.00890607        0.00164012
       -3.86228104        0.93529186        0.01335665        0.86822203        0.04349079        0.00863343        0.00158897
       -3.85227103        0.89802057        0.01271940        0.83305374        0.04233559        0.00837197        0.00153987
       -3.84226102        0.86185780        0.01212231        0.79888129        0.04123839        0.00812293        0.00149287
       -3.83225101        0.82695145        0.01156535        0.76585257        0.04019863        0.00788694        0.00144797
       -3.82224100        0.79342665        0.01104811        0.73409496        0.03921438        0.00766412        0.00140507
       -3.81223099        0.76138819        0.01056998        0.70371721        0.03828276        0.00745415        0.00136409
       -3.80222098        0.73092318        0.01013012        0.67481135        0.03740040        0.00725642        0.00132489
       -3.79221097        0.70210356        0.00972759        0.64745469        0.03656386        0.00707008        0.00128733
       -3.78220096        0.67498846        0.00936131        0.62171158        0.03577006        0.00689422        0.00125129
       -3.77219095        0.64962633        0.00903017        0.59763498        0.03501664        0.00672791        0.00121664
       -3.76218094        0.62605660        0.00873301        0.57526774        0.03430227        0.00657030        0.00118329
       -3.75217093        0.60431089        0.00846866        0.55464349        0.03362684        0.00642071        0.00115118
       -3.74216092        0.58441350        0.00823596        0.53578700        0.03299158        0.00627866        0.00112030
       -3.73215091        0.56638141        0.00803375        0.51871409        0.03239904        0.00614390        0.00109064
       -3.72214090        0.55022353        0.00786086        0.50343105        0.03185299        0.00601638        0.00106224
       -3.71213089        0.53593940        0.00771612        0.48993356        0.03135822        0.00589632        0.00103518
       -3.70212088        0.52351746        0.00759831        0.47820535        0.03092019        0.00578407        0.00100955
       -3.69211087        0.51293295        0.00750616        0.46821648        0.03054473        0.00568015        0.00098543
       -3.68210086        0.50414572        0.00743833        0.45992171        0.03023760        0.00558514        0.00096295
       -3.67209085        0.49709810        0.00739333        0.45325884        0.03000407        0.00549966        0.00094220
       -3.66208084        0.49171306        0.00736952        0.44814743        0.02984854        0.00542430        0.00092328
       -3.65207083        0.48789287        0.00736508        0.44448792        0.02977409        0.00535953        0.00090626
       -3.64206082        0.48551852        0.00737795        0.44216143        0.02978223        0.00530572        0.00089119
       -3.63205081        0.48444986        0.00740582        0.44103028        0.02987263        0.00526303        0.00087810
       -3.62204080        0.48452683        0.00744609        0.44093939        0.03004293        0.00523144        0.00086698
       -3.61203079        0.48557162        0.00749591        0.44171853        0.03028868        0.00521069        0.00085781
       -3.60202078        0.48739178        0.00755214        0.44318542        0.03060338        0.00520032        0.00085052
       -3.59201077        0.48978431        0.00761139        0.44514965        0.03097860        0.00519963        0.00084504
       -3.58200076        0.49254038        0.00767008        0.44741715        0.03140417        0.00520774        0.00084124
       -3.57199075        0.49545068        0.00772449        0.44979513        0.03186846        0.00522360        0.00083900
       -3.56198074        0.49831103        0.00777085        0.45209723        0.03235874        0.00524604        0.00083818
       -3.55197073        0.50092795        0.00780544        0.45414862        0.03286153        0.00527376        0.00083861
       -3.54196072        0.50312402        0.00782470        0.45579072        0.03336303        0.00530544        0.00084013
       -3.53195071        0.50474261        0.00782537        0.45688541        0.03384955        0.00533972        0.00084256
       -3.52194070        0.50565186        0.00780459        0.45731845        0.03430783        0.00537527        0.00084573
       -3.51193069        0.50574766        0.00776003        0.45700188        0.03472547        0.00541083        0.00084945
       -3.50192068        0.50495543        0.00769000        0.45587542        0.03509126        0.00544521        0.00085354
       -3.49191067        0.50323080        0.00759352        0.45390678        0.03539536        0.00547733        0.00085782
       -3.48190066        0.50055915        0.00747037        0.45109083        0.03562960        0.00550624        0.00086212
       -3.47189065        0.49695398        0.00732115        0.44744789        0.03578756        0.00553113        0.00086625
       -3.46188064        0.49245453        0.00714723        0.44302122        0.03586469        0.00555134        0.00087005
       -3.45187063        0.48712267        0.00695071        0.43787392        0.03585831        0.00556637        0.00087336
       -3.44186062        0.48103939        0.00673437        0.43208555        0.03576762        0.00557585        0.00087600
       -3.43185061        0.47430114        0.00650152        0.42574854        0.03559364        0.00557959        0.00087785
       -3.42184060        0.46701626        0.00625592        0.41896492        0.03533913        0.00557752        0.00087877
       -3.41183059        0.45930172        0.00600160        0.41184318        0.03500853        0.00556974        0.00087866
       -3.40182058        0.45128035        0.00574273        0.40449580        0.03460787        0.00555651        0.00087744
       -3.39181057        0.44307860        0.00548351        0.39703716        0.03414466        0.00553821        0.00087505
       -3.38180056        0.43482491        0.00522801        0.38958215        0.03362786        0.00551540        0.00087149
       -3.37179055        0.42664868        0.00498006        0.38224531        0.03306775        0.00548879        0.00086678
       -3.36178054        0.41867968        0.00474322        0.37514034        0.03247590        0.00545923        0.00086100
