#  aims_uuid : F128D8B5-E5F3-407F-ADF6-DC6AC86BB935                                
#  angular momentum projected density of states for species Mo as calculated by FHI-aims 
# The energy reference for this output is the vacuum level =       0.000000 eV
#      Energy (eV)         total dos     l= 0              l= 1              l= 2              l= 3              l= 4
      -10.00000000        0.97825400        0.03544409        0.15122426        0.77929020        0.01060391        0.00169154
       -9.98998999        1.02182537        0.03958888        0.16025012        0.80904437        0.01115694        0.00178506
       -9.97997998        1.06452682        0.04406960        0.16928284        0.83756756        0.01172989        0.00187694
       -9.96996997        1.10602985        0.04888073        0.17823064        0.86463351        0.01231845        0.00196652
       -9.95995996        1.14601533        0.05401006        0.18699767        0.89003639        0.01291804        0.00205317
       -9.94994995        1.18417551        0.05943792        0.19548539        0.91359200        0.01352393        0.00213626
       -9.93993994        1.22021546        0.06513657        0.20359406        0.93513832        0.01413131        0.00221520
       -9.92992993        1.25385434        0.07106974        0.21122441        0.95453546        0.01473531        0.00228941
       -9.91991992        1.28482677        0.07719247        0.21827947        0.97166536        0.01533111        0.00235836
       -9.90990991        1.31288451        0.08345120        0.22466649        0.98643135        0.01591391        0.00242156
       -9.89989990        1.33779872        0.08978422        0.23029896        0.99875794        0.01647902        0.00247857
       -9.88988989        1.35936272        0.09612249        0.23509871        1.00859067        0.01702185        0.00252900
       -9.87987988        1.37739543        0.10239076        0.23899789        1.01589625        0.01753798        0.00257253
       -9.86986987        1.39174514        0.10850919        0.24194093        1.02066292        0.01802318        0.00260892
       -9.85985986        1.40229352        0.11439510        0.24388618        1.02290080        0.01847343        0.00263800
       -9.84984985        1.40895948        0.11996513        0.24480733        1.02264232        0.01888501        0.00265969
       -9.83983984        1.41170260        0.12513751        0.24469442        1.01994221        0.01925447        0.00267399
       -9.82982983        1.41052580        0.12983444        0.24355426        1.01487732        0.01957878        0.00268099
       -9.81981982        1.40547690        0.13398440        0.24141051        1.00754582        0.01985530        0.00268086
       -9.80980981        1.39664906        0.13752445        0.23830308        0.99806583        0.02008184        0.00267386
       -9.79979980        1.38417970        0.14040213        0.23428698        0.98657355        0.02025675        0.00266030
       -9.78978979        1.36824826        0.14257717        0.22943081        0.97322084        0.02037888        0.00264056
       -9.77977978        1.34907257        0.14402271        0.22381465        0.95817244        0.02044771        0.00261507
       -9.76976977        1.32690435        0.14472606        0.21752775        0.94160301        0.02046325        0.00258428
       -9.75975976        1.30202380        0.14468895        0.21066596        0.92369404        0.02042616        0.00254868
       -9.74974975        1.27473383        0.14392730        0.20332904        0.90463102        0.02033770        0.00250878
       -9.73973974        1.24535404        0.14247044        0.19561804        0.88460080        0.02019970        0.00246507
       -9.72972973        1.21421481        0.14035993        0.18763282        0.86378943        0.02001458        0.00241805
       -9.71971972        1.18165175        0.13764802        0.17946981        0.84238039        0.01978530        0.00236823
       -9.70970971        1.14800049        0.13439579        0.17122005        0.82055328        0.01951530        0.00231607
       -9.69969970        1.11359213        0.13067106        0.16296769        0.79848285        0.01920848        0.00226205
       -9.68968969        1.07874919        0.12654635        0.15478877        0.77633837        0.01886907        0.00220663
       -9.67967968        1.04378209        0.12209664        0.14675052        0.75428306        0.01850162        0.00215025
       -9.66966967        1.00898617        0.11739741        0.13891090        0.73247365        0.01811085        0.00209336
       -9.65965966        0.97463907        0.11252272        0.13131862        0.71105977        0.01770157        0.00203639
       -9.64964965        0.94099850        0.10754354        0.12401334        0.69018324        0.01727862        0.00197977
       -9.63963964        0.90830038        0.10252637        0.11702616        0.66997721        0.01684670        0.00192394
       -9.62962963        0.87675725        0.09753214        0.11038030        0.65056514        0.01641032        0.00186933
       -9.61961962        0.84655713        0.09261532        0.10409193        0.63205977        0.01597373        0.00181637
       -9.60960961        0.81786283        0.08782345        0.09817099        0.61456210        0.01554079        0.00176550
       -9.59959960        0.79081175        0.08319678        0.09262223        0.59816062        0.01511499        0.00171713
       -9.58958959        0.76551630        0.07876825        0.08744613        0.58293085        0.01469936        0.00167171
       -9.57957958        0.74206508        0.07456360        0.08263990        0.56893541        0.01429651        0.00162966
       -9.56956957        0.72052474        0.07060170        0.07819847        0.55622452        0.01390864        0.00159141
       -9.55955956        0.70094250        0.06689489        0.07411536        0.54483729        0.01353757        0.00155737
       -9.54954955        0.68334945        0.06344959        0.07038367        0.53480341        0.01318480        0.00152798
       -9.53953954        0.66776435        0.06026674        0.06699683        0.52614552        0.01285158        0.00150367
       -9.52952953        0.65419778        0.05734254        0.06394945        0.51888191        0.01253901        0.00148488
       -9.51951952        0.64265659        0.05466894        0.06123796        0.51302956        0.01224808        0.00147205
       -9.50950951        0.63314829        0.05223440        0.05886122        0.50860723        0.01197979        0.00146565
       -9.49949950        0.62568523        0.05002443        0.05682098        0.50563846        0.01173517        0.00146619
       -9.48948949        0.62028826        0.04802228        0.05512218        0.50415429        0.01151536        0.00147415
       -9.47947948        0.61698983        0.04620952        0.05377312        0.50419547        0.01132161        0.00149010
       -9.46946947        0.61583608        0.04456668        0.05278543        0.50581405        0.01115533        0.00151460
       -9.45945946        0.61688809        0.04307379        0.05217383        0.50907420        0.01101804        0.00154823
       -9.44944945        0.62022177        0.04171100        0.05195568        0.51405211        0.01091137        0.00159161
       -9.43943944        0.62592675        0.04045906        0.05215036        0.52083493        0.01083703        0.00164536
       -9.42942943        0.63410382        0.03929986        0.05277842        0.52951875        0.01079670        0.00171009
       -9.41941942        0.64486121        0.03821677        0.05386049        0.54020555        0.01079202        0.00178638
       -9.40940941        0.65830960        0.03719511        0.05541610        0.55299913        0.01082447        0.00187479
       -9.39939940        0.67455600        0.03622232        0.05746236        0.56800022        0.01089531        0.00197578
       -9.38938939        0.69369668        0.03528823        0.06001246        0.58530078        0.01100549        0.00208972
       -9.37937938        0.71580937        0.03438509        0.06307421        0.60497767        0.01115554        0.00221685
       -9.36936937        0.74094488        0.03350760        0.06664862        0.62708592        0.01134550        0.00235724
       -9.35935936        0.76911865        0.03265275        0.07072845        0.65165186        0.01157482        0.00251076
       -9.34934935        0.80030245        0.03181964        0.07529707        0.67866639        0.01184227        0.00267707
       -9.33933934        0.83441677        0.03100918        0.08032742        0.70807873        0.01214590        0.00285554
       -9.32932933        0.87132423        0.03022371        0.08578132        0.73979097        0.01248294        0.00304530
       -9.31931932        0.91082451        0.02946663        0.09160914        0.77365378        0.01284980        0.00324516
       -9.30930931        0.95265113        0.02874191        0.09774987        0.80946368        0.01324202        0.00345365
       -9.29929930        0.99647059        0.02805372        0.10413162        0.84696190        0.01365431        0.00366903
       -9.28928929        1.04188382        0.02740593        0.11067259        0.88583542        0.01408062        0.00388926
       -9.27927928        1.08843044        0.02680177        0.11728250        0.92571990        0.01451419        0.00411207
       -9.26926927        1.13559553        0.02624348        0.12386444        0.96620489        0.01494772        0.00433501
       -9.25925926        1.18281897        0.02573203        0.13031707        1.00684092        0.01537351        0.00455544
       -9.24924925        1.22950702        0.02526694        0.13653722        1.04714851        0.01578370        0.00477065
       -9.23923924        1.27504577        0.02484621        0.14242257        1.08662863        0.01617046        0.00497790
       -9.22922923        1.31881582        0.02446624        0.14787451        1.12477432        0.01652627        0.00517449
       -9.21921922        1.36020788        0.02412191        0.15280101        1.16108298        0.01684417        0.00535781
       -9.20920921        1.39863840        0.02380679        0.15711927        1.19506890        0.01711799        0.00552546
       -9.19919920        1.43356472        0.02351328        0.16075820        1.22627541        0.01734258        0.00567525
       -9.18918919        1.46449913        0.02323291        0.16366049        1.25428640        0.01751403        0.00580530
       -9.17917918        1.49102133        0.02295671        0.16578423        1.27873654        0.01762977        0.00591407
       -9.16916917        1.51278882        0.02267553        0.16710402        1.29932017        0.01768868        0.00600042
       -9.15915916        1.52954487        0.02238043        0.16761151        1.31579823        0.01769113        0.00606357
       -9.14914915        1.54112392        0.02206306        0.16731532        1.32800340        0.01763895        0.00610320
       -9.13913914        1.54745434        0.02171603        0.16624049        1.33584316        0.01753528        0.00611938
       -9.12912913        1.54855842        0.02133324        0.16442727        1.33930081        0.01738452        0.00611258
       -9.11911912        1.54454985        0.02091015        0.16192950        1.33843451        0.01719204        0.00608365
       -9.10910911        1.53562887        0.02044401        0.15881266        1.33337444        0.01696399        0.00603377
       -9.09909910        1.52207519        0.01993397        0.15515152        1.32431820        0.01670706        0.00596443
       -9.08908909        1.50423912        0.01938118        0.15102771        1.31152469        0.01642818        0.00587736
       -9.07907908        1.48253107        0.01878872        0.14652713        1.29530646        0.01613427        0.00577448
       -9.06906907        1.45740985        0.01816149        0.14173746        1.27602104        0.01583202        0.00565784
       -9.05905906        1.42937003        0.01750600        0.13674572        1.25406110        0.01552763        0.00552959
       -9.04904905        1.39892871        0.01683009        0.13163607        1.22984404        0.01522664        0.00539187
       -9.03903904        1.36661208        0.01614259        0.12648791        1.20380095        0.01493380        0.00524683
       -9.02902903        1.33294214        0.01545295        0.12137419        1.17636553        0.01465296        0.00509650
       -9.01901902        1.29842396        0.01477080        0.11636016        1.14796314        0.01438702        0.00494284
       -9.00900901        1.26353383        0.01410555        0.11150246        1.11900032        0.01413790        0.00478761
       -8.99899900        1.22870888        0.01346602        0.10684851        1.08985532        0.01390662        0.00463241
       -8.98898899        1.19433826        0.01286010        0.10243633        1.06086987        0.01369333        0.00447864
       -8.97897898        1.16075649        0.01229440        0.09829458        1.03234260        0.01349744        0.00432748
       -8.96896897        1.12823903        0.01177410        0.09444292        1.00452435        0.01331776        0.00417990
       -8.95895896        1.09700036        0.01130277        0.09089262        0.97761566        0.01315264        0.00403667
       -8.94894895        1.06719454        0.01088233        0.08764732        0.95176643        0.01300011        0.00389834
       -8.93893894        1.03891816        0.01051307        0.08470390        0.92707777        0.01285811        0.00376531
       -8.92892893        1.01221557        0.01019372        0.08205353        0.90360591        0.01272459        0.00363781
       -8.91891892        0.98708580        0.00992165        0.07968269        0.88136780        0.01259772        0.00351595
       -8.90890891        0.96349096        0.00969306        0.07757419        0.86034803        0.01247596        0.00339972
       -8.89889890        0.94136543        0.00950325        0.07570823        0.84050667        0.01235823        0.00328905
       -8.88888889        0.92062530        0.00934683        0.07406333        0.82178736        0.01224397        0.00318382
       -8.87887888        0.90117756        0.00921806        0.07261722        0.80412526        0.01213315        0.00308387
       -8.86886887        0.88292835        0.00911107        0.07134758        0.78745431        0.01202635        0.00298904
       -8.85885886        0.86579007        0.00902010        0.07023273        0.77171338        0.01192469        0.00289917
       -8.84884885        0.84968684        0.00893969        0.06925218        0.75685109        0.01182976        0.00281411
       -8.83883884        0.83455820        0.00886489        0.06838699        0.74282896        0.01174361        0.00273375
       -8.82882883        0.82036102        0.00879134        0.06762011        0.72962305        0.01166854        0.00265798
       -8.81881882        0.80706967        0.00871539        0.06693654        0.71722396        0.01160705        0.00258673
       -8.80880881        0.79467460        0.00863410        0.06632341        0.70563554        0.01156161        0.00251995
       -8.79879880        0.78317976        0.00854526        0.06576992        0.69487236        0.01153461        0.00245761
       -8.78878879        0.77259901        0.00844740        0.06526727        0.68495653        0.01152810        0.00239971
       -8.77877878        0.76295200        0.00833966        0.06480846        0.67591389        0.01154373        0.00234626
       -8.76876877        0.75425985        0.00822177        0.06438803        0.66777021        0.01158257        0.00229727
       -8.75875876        0.74654089        0.00809394        0.06400180        0.66054737        0.01164503        0.00225276
       -8.74874875        0.73980685        0.00795676        0.06364654        0.65426003        0.01173077        0.00221276
       -8.73873874        0.73405958        0.00781113        0.06331967        0.64891285        0.01183864        0.00217729
       -8.72872873        0.72928851        0.00765810        0.06301894        0.64449838        0.01196672        0.00214638
       -8.71871872        0.72546888        0.00749886        0.06274211        0.64099564        0.01211225        0.00212002
       -8.70870871        0.72256081        0.00733461        0.06248670        0.63836952        0.01227177        0.00209820
       -8.69869870        0.72050911        0.00716651        0.06224970        0.63657082        0.01244120        0.00208088
       -8.68868869        0.71924378        0.00699563        0.06202741        0.63553683        0.01261593        0.00206797
       -8.67867868        0.71868108        0.00682290        0.06181527        0.63519253        0.01279101        0.00205938
       -8.66866867        0.71872507        0.00664912        0.06160771        0.63545201        0.01296130        0.00205493
       -8.65865866        0.71926945        0.00647490        0.06139818        0.63622028        0.01312168        0.00205441
       -8.64864865        0.72019964        0.00630072        0.06117906        0.63739510        0.01326721        0.00205756
       -8.63863864        0.72139496        0.00612687        0.06094176        0.63886893        0.01339336        0.00206404
       -8.62862863        0.72273076        0.00595354        0.06067681        0.64053081        0.01349613        0.00207347
       -8.61861862        0.72408063        0.00578080        0.06037402        0.64226815        0.01357223        0.00208543
       -8.60860861        0.72531842        0.00560864        0.06002273        0.64396846        0.01361918        0.00209942
       -8.59859860        0.72632022        0.00543700        0.05961203        0.64552089        0.01363538        0.00211491
       -8.58858859        0.72696633        0.00526581        0.05913116        0.64681778        0.01362020        0.00213137
       -8.57857858        0.72714313        0.00509502        0.05856981        0.64775616        0.01357392        0.00214822
       -8.56856857        0.72674509        0.00492463        0.05791861        0.64823927        0.01349769        0.00216489
       -8.55855856        0.72567683        0.00475470        0.05716954        0.64817823        0.01339353        0.00218083
       -8.54854855        0.72385536        0.00458542        0.05631643        0.64749388        0.01326414        0.00219549
       -8.53853854        0.72121254        0.00441707        0.05535540        0.64611883        0.01311282        0.00220841
       -8.52852853        0.71769770        0.00425009        0.05428538        0.64399974        0.01294333        0.00221915
       -8.51851852        0.71328049        0.00408504        0.05310850        0.64109983        0.01275977        0.00222736
       -8.50850851        0.70795373        0.00392266        0.05183042        0.63740149        0.01256640        0.00223275
       -8.49849850        0.70173621        0.00376383        0.05046069        0.63290896        0.01236757        0.00223517
       -8.48848849        0.69467530        0.00360957        0.04901285        0.62765078        0.01216758        0.00223453
       -8.47847848        0.68684895        0.00346106        0.04750451        0.62168190        0.01197062        0.00223086
       -8.46846847        0.67836708        0.00331962        0.04595726        0.61508520        0.01178070        0.00222430
