#  aims_uuid : F128D8B5-E5F3-407F-ADF6-DC6AC86BB935                                
#  angular momentum projected density of states for species S as calculated by FHI-aims 
# The energy reference for this output is the chemical potential, mu =      -5.106688 eV
#      Energy (eV)         total dos     l= 0              l= 1              l= 2              l= 3              l= 4
       -4.89331207        0.95800890        0.07924684        0.82217905        0.04975654        0.00618032        0.00064616
       -4.88330206        1.00794525        0.08372745        0.86441506        0.05265136        0.00647010        0.00068129
       -4.87329205        1.05762994        0.08809808        0.90656205        0.05550131        0.00675059        0.00071791
       -4.86328204        1.10668317        0.09232135        0.94830159        0.05828484        0.00701966        0.00075573
       -4.85327203        1.15472687        0.09636076        0.98931514        0.06098116        0.00727534        0.00079447
       -4.84326202        1.20138850        0.10018124        1.02928707        0.06357049        0.00751590        0.00083381
       -4.83325201        1.24630438        0.10374968        1.06790731        0.06603419        0.00773978        0.00087342
       -4.82324200        1.28912270        0.10703550        1.10487366        0.06835490        0.00794568        0.00091296
       -4.81323199        1.32950644        0.11001118        1.13989401        0.07051668        0.00813250        0.00095206
       -4.80322198        1.36713627        0.11265278        1.17268870        0.07250503        0.00829940        0.00099036
       -4.79321197        1.40171373        0.11494040        1.20299306        0.07430701        0.00844574        0.00102750
       -4.78320196        1.43296449        0.11685865        1.23056031        0.07591130        0.00857111        0.00106312
       -4.77319195        1.46064198        0.11839689        1.25516470        0.07730822        0.00867531        0.00109686
       -4.76318194        1.48453102        0.11954949        1.27660497        0.07848985        0.00875833        0.00112838
       -4.75317193        1.50445145        0.12031587        1.29470787        0.07944999        0.00882038        0.00115735
       -4.74316192        1.52026148        0.12070039        1.30933159        0.08018423        0.00886181        0.00118347
       -4.73315191        1.53186055        0.12071215        1.32036888        0.08068989        0.00888314        0.00120648
       -4.72314190        1.53919142        0.12036458        1.32774961        0.08096605        0.00888504        0.00122615
       -4.71313189        1.54224148        0.11967488        1.33144263        0.08101342        0.00886826        0.00124229
       -4.70312188        1.54104286        0.11866343        1.33145669        0.08083432        0.00883366        0.00125476
       -4.69311187        1.53567162        0.11735303        1.32784039        0.08043256        0.00878216        0.00126348
       -4.68310186        1.52624578        0.11576815        1.32068119        0.07981332        0.00871469        0.00126843
       -4.67309185        1.51292251        0.11393419        1.31010337        0.07898309        0.00863222        0.00126964
       -4.66308184        1.49589444        0.11187670        1.29626527        0.07794955        0.00853572        0.00126720
       -4.65307183        1.47538552        0.10962080        1.27935580        0.07672152        0.00842614        0.00126126
       -4.64306182        1.45164645        0.10719060        1.25959051        0.07530891        0.00830440        0.00125202
       -4.63305181        1.42495005        0.10460881        1.23720737        0.07372274        0.00817140        0.00123973
       -4.62304180        1.39558665        0.10189646        1.21246240        0.07197510        0.00802803        0.00122466
       -4.61303179        1.36385969        0.09907277        1.18562542        0.07007920        0.00787517        0.00120714
       -4.60302178        1.33008160        0.09615517        1.15697584        0.06804939        0.00771370        0.00118751
       -4.59301177        1.29456997        0.09315942        1.12679874        0.06590118        0.00754452        0.00116611
       -4.58300176        1.25764410        0.09009985        1.09538116        0.06365123        0.00736856        0.00114330
       -4.57299175        1.21962172        0.08698961        1.06300859        0.06131727        0.00718680        0.00111945
       -4.56298174        1.18081596        0.08384101        1.02996179        0.05891798        0.00700028        0.00109489
       -4.55297173        1.14153247        0.08066585        0.99651370        0.05647289        0.00681008        0.00106995
       -4.54296172        1.10206675        0.07747570        0.96292670        0.05400207        0.00661734        0.00104494
       -4.53295171        1.06270153        0.07428216        0.92945011        0.05152588        0.00642325        0.00102013
       -4.52294170        1.02370443        0.07109705        0.89631792        0.04906467        0.00622902        0.00099578
       -4.51293169        0.98532588        0.06793247        0.86374706        0.04663836        0.00603589        0.00097211
       -4.50292168        0.94779743        0.06480088        0.83193601        0.04426613        0.00584510        0.00094932
       -4.49291167        0.91133056        0.06171499        0.80106409        0.04196607        0.00565785        0.00092756
       -4.48290166        0.87611616        0.05868764        0.77129138        0.03975483        0.00547532        0.00090699
       -4.47289165        0.84232467        0.05573163        0.74275931        0.03764736        0.00529865        0.00088773
       -4.46288164        0.81010699        0.05285946        0.71559201        0.03565673        0.00512890        0.00086989
       -4.45287163        0.77959615        0.05008311        0.68989839        0.03379400        0.00496706        0.00085359
       -4.44286162        0.75090971        0.04741378        0.66577477        0.03206816        0.00481407        0.00083893
       -4.43285161        0.72415271        0.04486168        0.64330802        0.03048618        0.00467081        0.00082601
       -4.42284160        0.69942113        0.04243588        0.62257906        0.02905310        0.00453811        0.00081497
       -4.41283159        0.67680547        0.04014414        0.60366641        0.02777223        0.00441678        0.00080591
       -4.40282158        0.65639453        0.03799289        0.58664974        0.02664531        0.00430759        0.00079901
       -4.39281157        0.63827887        0.03598722        0.57161307        0.02567282        0.00421136        0.00079440
       -4.38280156        0.62255389        0.03413098        0.55864751        0.02485420        0.00412891        0.00079229
       -4.37279155        0.60932230        0.03242684        0.54785331        0.02418816        0.00406113        0.00079285
       -4.36278154        0.59869575        0.03087653        0.53934107        0.02367288        0.00400895        0.00079632
       -4.35277153        0.59079551        0.02948092        0.53323198        0.02330628        0.00397342        0.00080290
       -4.34276152        0.58575205        0.02824029        0.52965708        0.02308619        0.00395565        0.00081284
       -4.33275151        0.58370338        0.02715441        0.52875531        0.02301050        0.00395681        0.00082636
       -4.32274150        0.58479222        0.02622265        0.53067047        0.02307723        0.00397816        0.00084370
       -4.31273149        0.58916180        0.02544407        0.53554704        0.02328460        0.00402100        0.00086508
       -4.30272148        0.59695053        0.02481737        0.54352489        0.02363094        0.00408662        0.00089072
       -4.29271147        0.60828539        0.02434077        0.55473293        0.02411467        0.00417624        0.00092078
       -4.28270146        0.62327439        0.02401188        0.56928199        0.02473412        0.00429098        0.00095542
       -4.27269145        0.64199811        0.02382746        0.58725680        0.02548733        0.00443178        0.00099474
       -4.26268144        0.66450075        0.02378314        0.60870772        0.02637184        0.00459928        0.00103878
       -4.25267143        0.69078098        0.02387312        0.63364212        0.02738444        0.00479377        0.00108752
       -4.24266142        0.72078288        0.02408992        0.66201613        0.02852089        0.00501508        0.00114086
       -4.23265141        0.75438768        0.02442407        0.69372686        0.02977562        0.00526252        0.00119861
       -4.22264140        0.79140661        0.02486399        0.72860580        0.03114154        0.00553480        0.00126047
       -4.21263139        0.83157538        0.02539580        0.76641374        0.03260980        0.00582999        0.00132605
       -4.20262138        0.87455095        0.02600344        0.80683760        0.03416961        0.00614546        0.00139484
       -4.19261137        0.91991085        0.02666872        0.84948978        0.03580821        0.00647793        0.00146620
       -4.18260136        0.96715542        0.02737161        0.89391010        0.03751085        0.00682347        0.00153940
       -4.17259135        1.01571336        0.02809066        0.93957073        0.03926082        0.00717755        0.00161360
       -4.16258134        1.06495034        0.02880347        0.98588407        0.04103972        0.00753521        0.00168788
       -4.15257133        1.11418090        0.02948732        1.03221361        0.04282765        0.00789108        0.00176123
       -4.14256132        1.16268304        0.03011983        1.07788735        0.04460359        0.00823964        0.00183262
       -4.13255131        1.20971525        0.03067965        1.12221348        0.04634582        0.00857531        0.00190099
       -4.12254130        1.25453521        0.03114714        1.16449774        0.04803237        0.00889266        0.00196530
       -4.11253129        1.29641950        0.03150504        1.20406177        0.04964157        0.00918659        0.00202453
       -4.10252128        1.33468342        0.03173901        1.24026162        0.05115253        0.00945248        0.00207777
       -4.09251127        1.36870006        0.03183811        1.27250572        0.05254569        0.00968634        0.00212420
       -4.08250126        1.39791790        0.03179507        1.30027144        0.05380329        0.00988498        0.00216313
       -4.07249125        1.42187593        0.03160649        1.32311954        0.05490987        0.01004600        0.00219403
       -4.06248124        1.44021590        0.03127286        1.34070596        0.05585260        0.01016795        0.00221653
       -4.05247123        1.45269107        0.03079839        1.35279029        0.05662168        0.01025025        0.00223046
       -4.04246122        1.45917113        0.03019073        1.35924083        0.05721051        0.01029324        0.00223581
       -4.03245121        1.45964331        0.02946060        1.36003600        0.05761589        0.01029807        0.00223275
       -4.02244120        1.45420966        0.02862126        1.35526209        0.05783806        0.01026664        0.00222160
       -4.01243119        1.44308074        0.02768799        1.34510777        0.05788067        0.01020146        0.00220285
       -4.00242118        1.42656627        0.02667746        1.32985551        0.05775063        0.01010559        0.00217708
       -3.99241117        1.40506307        0.02560718        1.30987056        0.05745791        0.00998242        0.00214501
       -3.98240116        1.37904107        0.02449493        1.28558793        0.05701520        0.00983562        0.00210738
       -3.97239115        1.34902784        0.02335825        1.25749805        0.05643756        0.00966897        0.00206501
       -3.96238114        1.31559248        0.02221396        1.22613164        0.05574191        0.00948625        0.00201872
       -3.95237113        1.27932932        0.02107782        1.19204445        0.05494654        0.00929117        0.00196934
       -3.94236112        1.24084196        0.01996424        1.15580228        0.05407053        0.00908726        0.00191766
       -3.93235111        1.20072832        0.01888605        1.11796684        0.05313319        0.00887782        0.00186442
       -3.92234110        1.15956688        0.01785437        1.07908284        0.05215349        0.00866587        0.00181032
       -3.91233109        1.11790458        0.01687855        1.03966648        0.05114944        0.00845413        0.00175597
       -3.90232108        1.07624653        0.01596615        1.00019582        0.05013763        0.00824499        0.00170194
       -3.89231107        1.03504784        0.01512293        0.96110291        0.04913277        0.00804053        0.00164870
       -3.88230106        0.99470751        0.01435300        0.92276810        0.04814731        0.00784247        0.00159663
       -3.87229105        0.95556462        0.01365879        0.88551626        0.04719122        0.00765226        0.00154608
       -3.86228104        0.91789660        0.01304124        0.84961517        0.04627188        0.00747103        0.00149729
       -3.85227103        0.88191972        0.01249984        0.81527579        0.04539401        0.00729963        0.00145045
       -3.84226102        0.84779144        0.01203278        0.78265441        0.04455988        0.00713866        0.00140571
       -3.83225101        0.81561464        0.01163705        0.75185641        0.04376955        0.00698849        0.00136314
       -3.82224100        0.78544324        0.01130856        0.72294145        0.04302116        0.00684928        0.00132280
       -3.81223099        0.75728911        0.01104227        0.69592971        0.04231144        0.00672101        0.00128468
       -3.80222098        0.73112963        0.01083234        0.67080883        0.04163617        0.00660351        0.00124878
       -3.79221097        0.70691581        0.01067227        0.64754130        0.04099068        0.00649650        0.00121505
       -3.78220096        0.68458026        0.01055508        0.62607178        0.04037038        0.00639957        0.00118345
       -3.77219095        0.66404482        0.01047348        0.60633400        0.03977117        0.00631228        0.00115389
       -3.76218094        0.64522742        0.01042010        0.58825702        0.03918986        0.00623411        0.00112633
       -3.75217093        0.62804779        0.01038766        0.57177046        0.03862443        0.00616456        0.00110067
       -3.74216092        0.61243192        0.01036921        0.55680849        0.03807425        0.00610311        0.00107685
       -3.73215091        0.59831505        0.01035834        0.54331258        0.03754008        0.00604925        0.00105480
       -3.72214090        0.58564317        0.01034934        0.53123281        0.03702404        0.00600254        0.00103444
       -3.71213089        0.57437311        0.01033742        0.52052798        0.03652945        0.00596254        0.00101571
       -3.70212088        0.56447127        0.01031881        0.51116448        0.03606052        0.00592890        0.00099855
       -3.69211087        0.55591133        0.01029086        0.50311417        0.03562209        0.00590131        0.00098290
       -3.68210086        0.54867108        0.01025208        0.49635165        0.03521917        0.00587948        0.00096871
       -3.67209085        0.54272873        0.01020212        0.49085087        0.03485660        0.00586321        0.00095593
       -3.66208084        0.53805895        0.01014172        0.48658178        0.03453865        0.00585230        0.00094451
       -3.65207083        0.53462902        0.01007254        0.48350683        0.03426867        0.00584657        0.00093441
       -3.64206082        0.53239529        0.00999700        0.48157800        0.03404882        0.00584587        0.00092560
       -3.63205081        0.53130016        0.00991808        0.48073421        0.03387985        0.00585001        0.00091802
       -3.62204080        0.53126993        0.00983903        0.48089951        0.03376096        0.00585879        0.00091164
       -3.61203079        0.53221342        0.00976317        0.48198207        0.03368981        0.00587197        0.00090641
       -3.60202078        0.53402167        0.00969358        0.48387403        0.03366254        0.00588925        0.00090227
       -3.59201077        0.53656854        0.00963290        0.48645231        0.03367390        0.00591026        0.00089917
       -3.58200076        0.53971242        0.00958315        0.48958018        0.03371747        0.00593457        0.00089705
       -3.57199075        0.54329863        0.00954553        0.49310973        0.03378590        0.00596166        0.00089582
       -3.56198074        0.54716272        0.00952038        0.49688488        0.03387113        0.00599094        0.00089538
       -3.55197073        0.55113423        0.00950712        0.50074495        0.03396475        0.00602177        0.00089565
       -3.54196072        0.55504089        0.00950429        0.50452851        0.03405820        0.00605341        0.00089649
       -3.53195071        0.55871287        0.00950963        0.50807732        0.03414304        0.00608511        0.00089777
       -3.52194070        0.56198699        0.00952022        0.51124019        0.03421117        0.00611606        0.00089935
       -3.51193069        0.56471070        0.00953265        0.51387652        0.03425498        0.00614546        0.00090108
       -3.50192068        0.56674543        0.00954325        0.51585943        0.03426747        0.00617249        0.00090280
       -3.49191067        0.56796953        0.00954822        0.51707825        0.03424236        0.00619636        0.00090434
       -3.48190066        0.56828035        0.00954394        0.51744040        0.03417416        0.00621631        0.00090554
       -3.47189065        0.56759572        0.00952705        0.51687260        0.03405817        0.00623164        0.00090625
       -3.46188064        0.56585472        0.00949471        0.51532142        0.03389055        0.00624172        0.00090631
       -3.45187063        0.56301785        0.00944463        0.51275326        0.03366837        0.00624600        0.00090559
       -3.44186062        0.55906677        0.00937523        0.50915394        0.03338960        0.00624403        0.00090397
       -3.43185061        0.55400366        0.00928561        0.50452793        0.03305330        0.00623546        0.00090136
       -3.42184060        0.54785052        0.00917564        0.49889750        0.03265963        0.00622007        0.00089769
       -3.41183059        0.54064835        0.00904581        0.49230183        0.03220999        0.00619778        0.00089293
       -3.40182058        0.53245654        0.00889730        0.48479628        0.03170721        0.00616866        0.00088709
       -3.39181057        0.52335231        0.00873179        0.47645173        0.03115563        0.00613295        0.00088021
       -3.38180056        0.51343042        0.00855142        0.46735430        0.03056126        0.00609108        0.00087236
       -3.37179055        0.50280295        0.00835872        0.45760504        0.02993186        0.00604365        0.00086369
       -3.36178054        0.49159917        0.00815650        0.44731985        0.02927699        0.00599148        0.00085435
