#  aims_uuid : F128D8B5-E5F3-407F-ADF6-DC6AC86BB935                                
#  angular momentum projected density of states for species Mo as calculated by FHI-aims 
# The energy reference for this output is the vacuum level =       0.000000 eV
#      Energy (eV)         total dos     l= 0              l= 1              l= 2              l= 3              l= 4
      -10.00000000        0.94402329        0.03398184        0.13073878        0.76680942        0.01083295        0.00166030
       -9.98998999        0.98934210        0.03912035        0.13965828        0.79742329        0.01137904        0.00176114
       -9.97997998        1.03376012        0.04477681        0.14871571        0.82645687        0.01195021        0.00186053
       -9.96996997        1.07695586        0.05094756        0.15783920        0.85366881        0.01254257        0.00195772
       -9.95995996        1.11861580        0.05761694        0.16695193        0.87884323        0.01315170        0.00205200
       -9.94994995        1.15843468        0.06475622        0.17597278        0.90179032        0.01377270        0.00214267
       -9.93993994        1.19611547        0.07232285        0.18481722        0.92234614        0.01440023        0.00222904
       -9.92992993        1.23136951        0.08026025        0.19339828        0.94037198        0.01502855        0.00231044
       -9.91991992        1.26391721        0.08849816        0.20162772        0.95575348        0.01565160        0.00238625
       -9.90990991        1.29348958        0.09695349        0.20941743        0.96839983        0.01626300        0.00245583
       -9.89989990        1.31983083        0.10553185        0.21668083        0.97824332        0.01685622        0.00251861
       -9.88988989        1.34270217        0.11412958        0.22333464        0.98523929        0.01742462        0.00257404
       -9.87987988        1.36188663        0.12263625        0.22930049        0.98936667        0.01796159        0.00262164
       -9.86986987        1.37719481        0.13093752        0.23450673        0.99062889        0.01846071        0.00266095
       -9.85985986        1.38847114        0.13891832        0.23889013        0.98905515        0.01891592        0.00269163
       -9.84984985        1.39560019        0.14646601        0.24239740        0.98470179        0.01932160        0.00271339
       -9.83983984        1.39851257        0.15347354        0.24498660        0.97765354        0.01967286        0.00272603
       -9.82982983        1.39718998        0.15984243        0.24662820        0.96802429        0.01996557        0.00272949
       -9.81981982        1.39166883        0.16548531        0.24730584        0.95595733        0.02019657        0.00272379
       -9.80980981        1.38204220        0.17032805        0.24701671        0.94162465        0.02036374        0.00270906
       -9.79979980        1.36846002        0.17431139        0.24577156        0.92522538        0.02046611        0.00268557
       -9.78978979        1.35112712        0.17739193        0.24359438        0.90698330        0.02050383        0.00265369
       -9.77977978        1.33029960        0.17954251        0.24052164        0.88714334        0.02047821        0.00261390
       -9.76976977        1.30627946        0.18075219        0.23660137        0.86596747        0.02039166        0.00256677
       -9.75975976        1.27940790        0.18102553        0.23189189        0.84372989        0.02024760        0.00251299
       -9.74974975        1.25005765        0.18038162        0.22646043        0.82071198        0.02005034        0.00245329
       -9.73973974        1.21862481        0.17885277        0.22038165        0.79719700        0.01980492        0.00238847
       -9.72972973        1.18552030        0.17648290        0.21373603        0.77346501        0.01951698        0.00231938
       -9.71971972        1.15116165        0.17332594        0.20660833        0.74978795        0.01919252        0.00224690
       -9.70970971        1.11596500        0.16944409        0.19908602        0.72642517        0.01883780        0.00217191
       -9.69969970        1.08033774        0.16490618        0.19125773        0.70361943        0.01845909        0.00209530
       -9.68968969        1.04467181        0.15978608        0.18321186        0.68159342        0.01806252        0.00201793
       -9.67967968        1.00933780        0.15416117        0.17503514        0.66054689        0.01765396        0.00194064
       -9.66966967        0.97467973        0.14811101        0.16681132        0.64065432        0.01723886        0.00186422
       -9.65965966        0.94101072        0.14171605        0.15861996        0.62206314        0.01682213        0.00178943
       -9.64964965        0.90860946        0.13505647        0.15053530        0.60489261        0.01640812        0.00171696
       -9.63963964        0.87771754        0.12821109        0.14262522        0.58923331        0.01600050        0.00164743
       -9.62962963        0.84853771        0.12125635        0.13495039        0.57514727        0.01560229        0.00158140
       -9.61961962        0.82123311        0.11426538        0.12756360        0.56266890        0.01521586        0.00151938
       -9.60960961        0.79592771        0.10730712        0.12050921        0.55180665        0.01484294        0.00146179
       -9.59959960        0.77270776        0.10044552        0.11382299        0.54254553        0.01448473        0.00140900
       -9.58958959        0.75162453        0.09373879        0.10753211        0.53485039        0.01414195        0.00136130
       -9.57957958        0.73269817        0.08723881        0.10165543        0.52867003        0.01381496        0.00131894
       -9.56956957        0.71592266        0.08099064        0.09620416        0.52394188        0.01350387        0.00128212
       -9.55955956        0.70127168        0.07503211        0.09118269        0.52059723        0.01320865        0.00125100
       -9.54954955        0.68870509        0.06939368        0.08658972        0.51856669        0.01292927        0.00122572
       -9.53953954        0.67817589        0.06409836        0.08241961        0.51778573        0.01266579        0.00120640
       -9.52952953        0.66963710        0.05916186        0.07866377        0.51819987        0.01241843        0.00119316
       -9.51951952        0.66304846        0.05459286        0.07531224        0.51976950        0.01218770        0.00118616
       -9.50950951        0.65838233        0.05039343        0.07235513        0.52247383        0.01197438        0.00118556
       -9.49949950        0.65562881        0.04655964        0.06978408        0.52631392        0.01177959        0.00119159
       -9.48948949        0.65479954        0.04308217        0.06759340        0.53131467        0.01160477        0.00120453
       -9.47947948        0.65593020        0.03994712        0.06578109        0.53752560        0.01145163        0.00122476
       -9.46946947        0.65908151        0.03713678        0.06434947        0.54502041        0.01132214        0.00125271
       -9.45945946        0.66433876        0.03463048        0.06330547        0.55389545        0.01121842        0.00128894
       -9.44944945        0.67180982        0.03240545        0.06266055        0.56426705        0.01114269        0.00133408
       -9.43943944        0.68162178        0.03043759        0.06243022        0.57626794        0.01109717        0.00138887
       -9.42942943        0.69391625        0.02870227        0.06263318        0.59004270        0.01108398        0.00145412
       -9.41941942        0.70884352        0.02717505        0.06329016        0.60574251        0.01110508        0.00153072
       -9.40940941        0.72655558        0.02583224        0.06442245        0.62351913        0.01116216        0.00161960
       -9.39939940        0.74719830        0.02465148        0.06605019        0.64351839        0.01125656        0.00172168
       -9.38938939        0.77090272        0.02361211        0.06819055        0.66587298        0.01138920        0.00183788
       -9.37937938        0.79777576        0.02269546        0.07085589        0.69069488        0.01156052        0.00196901
       -9.36936937        0.82789054        0.02188508        0.07405190        0.71806738        0.01177038        0.00211579
       -9.35935936        0.86127635        0.02116674        0.07777596        0.74803690        0.01201802        0.00227873
       -9.34934935        0.89790895        0.02052844        0.08201566        0.78060475        0.01230199        0.00245811
       -9.33933934        0.93770120        0.01996026        0.08674768        0.81571925        0.01262010        0.00265391
       -9.32932933        0.98049474        0.01945414        0.09193705        0.85326839        0.01296939        0.00286578
       -9.31931932        1.02605314        0.01900366        0.09753685        0.89307359        0.01334605        0.00309299
       -9.30930931        1.07405700        0.01860368        0.10348838        0.93488506        0.01374549        0.00333438
       -9.29929930        1.12410170        0.01825006        0.10972182        0.97837914        0.01416230        0.00358838
       -9.28928929        1.17569817        0.01793934        0.11615735        1.02315819        0.01459030        0.00385300
       -9.27927928        1.22827709        0.01766843        0.12270675        1.06875344        0.01502267        0.00412581
       -9.26926927        1.28119690        0.01743436        0.12927540        1.11463108        0.01545204        0.00440402
       -9.25925926        1.33375549        0.01723406        0.13576448        1.16020175        0.01587070        0.00468451
       -9.24924925        1.38520565        0.01706421        0.14207357        1.20483326        0.01627073        0.00496389
       -9.23923924        1.43477372        0.01692109        0.14810323        1.24786649        0.01664432        0.00523859
       -9.22922923        1.48168081        0.01680056        0.15375762        1.28863373        0.01698395        0.00550495
       -9.21921922        1.52516599        0.01669803        0.15894709        1.32647887        0.01728271        0.00575930
       -9.20920921        1.56451008        0.01660850        0.16359044        1.36077859        0.01753450        0.00599805
       -9.19919920        1.59905922        0.01652664        0.16761701        1.39096345        0.01773430        0.00621782
       -9.18918919        1.62824694        0.01644687        0.17096831        1.41653791        0.01787836        0.00641548
       -9.17917918        1.65161357        0.01636351        0.17359926        1.43709819        0.01796433        0.00658828
       -9.16916917        1.66882201        0.01627090        0.17547892        1.45234694        0.01799138        0.00673387
       -9.15915916        1.67966910        0.01616360        0.17659084        1.46210412        0.01796018        0.00685036
       -9.14914915        1.68409186        0.01603649        0.17693286        1.46631319        0.01787292        0.00693639
       -9.13913914        1.68216832        0.01588498        0.17651651        1.46504254        0.01773317        0.00699112
       -9.12912913        1.67411307        0.01570515        0.17536608        1.45848192        0.01754570        0.00701422
       -9.11911912        1.66026751        0.01549393        0.17351729        1.44693407        0.01731632        0.00700589
       -9.10910911        1.64108559        0.01524919        0.17101585        1.43080211        0.01705158        0.00696686
       -9.09909910        1.61711564        0.01496989        0.16791573        1.41057321        0.01675854        0.00689827
       -9.08908909        1.58897926        0.01465612        0.16427745        1.38679950        0.01644446        0.00680173
       -9.07907908        1.55734826        0.01430922        0.16016629        1.36007703        0.01611654        0.00667919
       -9.06906907        1.52292081        0.01393167        0.15565056        1.33102395        0.01578170        0.00653293
       -9.05905906        1.48639775        0.01352717        0.15080002        1.30025878        0.01544629        0.00636549
       -9.04904905        1.44846007        0.01310043        0.14568431        1.26837971        0.01511600        0.00617962
       -9.03903904        1.40974853        0.01265707        0.14037171        1.23594595        0.01479562        0.00597818
       -9.02902903        1.37084608        0.01220344        0.13492791        1.20346153        0.01448907        0.00576413
       -9.01901902        1.33226362        0.01174636        0.12941508        1.17136249        0.01419928        0.00554042
       -9.00900901        1.29442966        0.01129282        0.12389109        1.14000754        0.01392820        0.00530999
       -8.99899900        1.25768392        0.01084979        0.11840894        1.10967258        0.01367694        0.00507566
       -8.98898899        1.22227508        0.01042382        0.11301630        1.08054911        0.01344574        0.00484011
       -8.97897898        1.18836249        0.01002085        0.10775529        1.05274634        0.01323418        0.00460583
       -8.96896897        1.15602158        0.00964594        0.10266240        1.02629689        0.01304129        0.00437506
       -8.95895896        1.12525252        0.00930305        0.09776853        1.00116546        0.01286567        0.00414980
       -8.94894895        1.09599166        0.00899494        0.09309917        0.97726010        0.01270569        0.00393176
       -8.93893894        1.06812507        0.00872303        0.08867469        0.95444536        0.01255962        0.00372237
       -8.92892893        1.04150333        0.00848744        0.08451075        0.93255666        0.01242575        0.00352274
       -8.91891892        1.01595703        0.00828700        0.08061872        0.91141505        0.01230254        0.00333371
       -8.90890891        0.99131189        0.00811943        0.07700622        0.89084168        0.01218870        0.00315586
       -8.89889890        0.96740298        0.00798145        0.07367761        0.87067115        0.01208325        0.00298951
       -8.88888889        0.94408720        0.00786906        0.07063458        0.85076320        0.01198558        0.00283477
       -8.87887888        0.92125343        0.00777777        0.06787660        0.83101204        0.01189544        0.00269158
       -8.86886887        0.89882992        0.00770286        0.06540139        0.81135299        0.01181296        0.00255972
       -8.85885886        0.87678870        0.00763971        0.06320534        0.79176621        0.01173857        0.00243888
       -8.84884885        0.85514677        0.00758400        0.06128381        0.77227733        0.01167296        0.00232867
       -8.83883884        0.83396422        0.00753195        0.05963134        0.75295525        0.01161700        0.00222868
       -8.82882883        0.81333971        0.00748050        0.05824184        0.73390724        0.01157167        0.00213846
       -8.81881882        0.79340341        0.00742746        0.05710857        0.71527188        0.01153792        0.00205758
       -8.80880881        0.77430828        0.00737154        0.05622415        0.69721035        0.01151663        0.00198561
       -8.79879880        0.75622015        0.00731235        0.05558044        0.67989671        0.01150848        0.00192216
       -8.78878879        0.73930728        0.00725035        0.05516840        0.66350779        0.01151389        0.00186685
       -8.77877878        0.72373011        0.00718672        0.05497786        0.64821329        0.01153294        0.00181932
       -8.76876877        0.70963181        0.00712318        0.05499732        0.63416679        0.01156530        0.00177922
       -8.75875876        0.69713000        0.00706180        0.05521375        0.62149801        0.01161023        0.00174621
       -8.74874875        0.68631033        0.00700477        0.05561237        0.61030672        0.01166652        0.00171994
       -8.73873874        0.67722180        0.00695416        0.05617651        0.60065857        0.01173253        0.00170004
       -8.72872873        0.66987427        0.00691169        0.05688745        0.59258285        0.01180616        0.00168612
       -8.71871872        0.66423798        0.00687857        0.05772445        0.58607224        0.01188495        0.00167777
       -8.70870871        0.66024496        0.00685532        0.05866471        0.58108430        0.01196609        0.00167455
       -8.69869870        0.65779214        0.00684169        0.05968348        0.57754445        0.01204653        0.00167598
       -8.68868869        0.65674586        0.00683661        0.06075430        0.57535029        0.01212308        0.00168158
       -8.67867868        0.65694734        0.00683817        0.06184927        0.57437658        0.01219246        0.00169086
       -8.66866867        0.65821887        0.00684376        0.06293938        0.57448094        0.01225150        0.00170329
       -8.65865866        0.66037020        0.00685017        0.06399501        0.57550947        0.01229716        0.00171839
       -8.64864865        0.66320493        0.00685374        0.06498645        0.57730235        0.01232672        0.00173567
       -8.63863864        0.66652643        0.00685058        0.06588450        0.57969886        0.01233783        0.00175466
       -8.62862863        0.67014322        0.00683680        0.06666107        0.58254180        0.01232862        0.00177493
       -8.61861862        0.67387350        0.00680873        0.06728986        0.58568106        0.01229777        0.00179609
       -8.60860861        0.67754876        0.00676309        0.06774704        0.58897634        0.01224454        0.00181777
       -8.59859860        0.68101647        0.00669721        0.06801185        0.59229896        0.01216880        0.00183965
       -8.58858859        0.68414184        0.00660917        0.06806725        0.59553292        0.01207106        0.00186144
       -8.57857858        0.68680872        0.00649788        0.06790036        0.59857519        0.01195238        0.00188291
       -8.56856857        0.68891988        0.00636314        0.06750297        0.60133558        0.01181436        0.00190382
       -8.55855856        0.69039675        0.00620561        0.06687183        0.60373624        0.01165907        0.00192401
       -8.54854855        0.69117890        0.00602682        0.06600885        0.60571098        0.01148894        0.00194330
       -8.53853854        0.69122335        0.00582902        0.06492119        0.60720484        0.01130674        0.00196156
       -8.52852853        0.69050407        0.00561510        0.06362122        0.60817366        0.01111541        0.00197867
       -8.51851852        0.68901157        0.00538840        0.06212633        0.60858426        0.01091805        0.00199454
       -8.50850851        0.68675298        0.00515260        0.06045863        0.60841488        0.01071778        0.00200908
       -8.49849850        0.68375234        0.00491154        0.05864463        0.60765616        0.01051776        0.00202225
       -8.48848849        0.68005131        0.00466909        0.05671467        0.60631245        0.01032107        0.00203404
       -8.47847848        0.67571010        0.00442899        0.05470250        0.60440344        0.01013073        0.00204445
       -8.46846847        0.67080842        0.00419480        0.05264460        0.60196582        0.00994965        0.00205354
