#  aims_uuid : F128D8B5-E5F3-407F-ADF6-DC6AC86BB935                                
#  angular momentum projected density of states for species S as calculated by FHI-aims 
# The energy reference for this output is the chemical potential, mu =      -5.106688 eV
#      Energy (eV)         total dos     l= 0              l= 1              l= 2              l= 3              l= 4
       -4.89331207        1.03994411        0.07033498        0.91196439        0.05106940        0.00595120        0.00062413
       -4.88330206        1.08547760        0.07412610        0.95082248        0.05362885        0.00624881        0.00065135
       -4.87329205        1.13020394        0.07782542        0.98903320        0.05612569        0.00654016        0.00067947
       -4.86328204        1.17370103        0.08141105        1.02622081        0.05853759        0.00682331        0.00070827
       -4.85327203        1.21556858        0.08486293        1.06202878        0.06084291        0.00709642        0.00073754
       -4.84326202        1.25543541        0.08816287        1.09612680        0.06302096        0.00735771        0.00076706
       -4.83325201        1.29296528        0.09129457        1.12821627        0.06505235        0.00760549        0.00079660
       -4.82324200        1.32786109        0.09424349        1.15803434        0.06691916        0.00783817        0.00082593
       -4.81323199        1.35986763        0.09699684        1.18535650        0.06860527        0.00805421        0.00085481
       -4.80322198        1.38877290        0.09954341        1.20999778        0.07009651        0.00825219        0.00088301
       -4.79321197        1.41440815        0.10187348        1.23181271        0.07138090        0.00843078        0.00091028
       -4.78320196        1.43664691        0.10397868        1.25069428        0.07244879        0.00858876        0.00093640
       -4.77319195        1.45540307        0.10585191        1.26657196        0.07329304        0.00872506        0.00096111
       -4.76318194        1.47062834        0.10748719        1.27940913        0.07390910        0.00883873        0.00098419
       -4.75317193        1.48230906        0.10887961        1.28919994        0.07429507        0.00892903        0.00100542
       -4.74316192        1.49046284        0.11002519        1.29596594        0.07445173        0.00899539        0.00102459
       -4.73315191        1.49513484        0.11092086        1.29975257        0.07438245        0.00903745        0.00104151
       -4.72314190        1.49639411        0.11156431        1.30062557        0.07409313        0.00905509        0.00105601
       -4.71313189        1.49433004        0.11195402        1.29866767        0.07359197        0.00904841        0.00106796
       -4.70312188        1.48904901        0.11208917        1.29397551        0.07288930        0.00901776        0.00107726
       -4.69311187        1.48067146        0.11196967        1.28665696        0.07199728        0.00896370        0.00108385
       -4.68310186        1.46932938        0.11159615        1.27682890        0.07092959        0.00888704        0.00108770
       -4.67309185        1.45516440        0.11097007        1.26461558        0.06970116        0.00878877        0.00108883
       -4.66308184        1.43832644        0.11009382        1.25014748        0.06832776        0.00867009        0.00108730
       -4.65307183        1.41897289        0.10897083        1.23356071        0.06682576        0.00853238        0.00108321
       -4.64306182        1.39726835        0.10760579        1.21499687        0.06521183        0.00837717        0.00107669
       -4.63305181        1.37338468        0.10600483        1.19460316        0.06350265        0.00820611        0.00106793
       -4.62304180        1.34750135        0.10417575        1.17253279        0.06171471        0.00802100        0.00105710
       -4.61303179        1.31980574        0.10212817        1.14894529        0.05986414        0.00782370        0.00104444
       -4.60302178        1.29049337        0.09987370        1.12400675        0.05796657        0.00761617        0.00103018
       -4.59301177        1.25976772        0.09742605        1.09788965        0.05603703        0.00740042        0.00101456
       -4.58300176        1.22783959        0.09480105        1.07077231        0.05408986        0.00717852        0.00099785
       -4.57299175        1.19492590        0.09201659        1.04283786        0.05213864        0.00695253        0.00098028
       -4.56298174        1.16124788        0.08909243        1.01427260        0.05019620        0.00672453        0.00096212
       -4.55297173        1.12702868        0.08605000        0.98526401        0.04827451        0.00649657        0.00094360
       -4.54296172        1.09249066        0.08291203        0.95599838        0.04638468        0.00627063        0.00092495
       -4.53295171        1.05785241        0.07970215        0.92665834        0.04453692        0.00604861        0.00090639
       -4.52294170        1.02332583        0.07644441        0.89742049        0.04274050        0.00583230        0.00088812
       -4.51293169        0.98911356        0.07316285        0.86845332        0.04100371        0.00562335        0.00087033
       -4.50292168        0.95540692        0.06988093        0.83991571        0.03933385        0.00542323        0.00085320
       -4.49291167        0.92238466        0.06662118        0.81195614        0.03773721        0.00523325        0.00083688
       -4.48290166        0.89021268        0.06340471        0.78471282        0.03621914        0.00505447        0.00082153
       -4.47289165        0.85904471        0.06025100        0.75831461        0.03478402        0.00488779        0.00080729
       -4.46288164        0.82902403        0.05717756        0.73288292        0.03343540        0.00473384        0.00079431
       -4.45287163        0.80028599        0.05419991        0.70853422        0.03217605        0.00459309        0.00078272
       -4.44286162        0.77296122        0.05133148        0.68538317        0.03100812        0.00446579        0.00077267
       -4.43285161        0.74717923        0.04858369        0.66354594        0.02993326        0.00435202        0.00076431
       -4.42284160        0.72307198        0.04596614        0.64314349        0.02895281        0.00425173        0.00075780
       -4.41283159        0.70077723        0.04348673        0.62430453        0.02806790        0.00416476        0.00075331
       -4.40282158        0.68044119        0.04115196        0.60716770        0.02727966        0.00409085        0.00075101
       -4.39281157        0.66222021        0.03896716        0.59188289        0.02658931        0.00402975        0.00075110
       -4.38280156        0.64628134        0.03693674        0.57861136        0.02599827        0.00398119        0.00075378
       -4.37279155        0.63280144        0.03506441        0.56752456        0.02550829        0.00394494        0.00075924
       -4.36278154        0.62196490        0.03335338        0.55880158        0.02512139        0.00392084        0.00076771
       -4.35277153        0.61395984        0.03180641        0.55262525        0.02483993        0.00390886        0.00077939
       -4.34276152        0.60897299        0.03042595        0.54917699        0.02466651        0.00390907        0.00079448
       -4.33275151        0.60718332        0.02921404        0.54863053        0.02460389        0.00392168        0.00081318
       -4.32274150        0.60875466        0.02817228        0.55114483        0.02465484        0.00394706        0.00083564
       -4.31273149        0.61382771        0.02730164        0.55685638        0.02482196        0.00398571        0.00086202
       -4.30272148        0.62251155        0.02660228        0.56587118        0.02510742        0.00403826        0.00089241
       -4.29271147        0.63487529        0.02607327        0.57825689        0.02551281        0.00410543        0.00092689
       -4.28270146        0.65093996        0.02571236        0.59403534        0.02603877        0.00418802        0.00096547
       -4.27269145        0.67067124        0.02551568        0.61317579        0.02668482        0.00428684        0.00100810
       -4.26268144        0.69397324        0.02547749        0.63558936        0.02744903        0.00440267        0.00105469
       -4.25267143        0.72068388        0.02558997        0.66112481        0.02832783        0.00453620        0.00110507
       -4.24266142        0.75057190        0.02584304        0.68956615        0.02931578        0.00468794        0.00115899
       -4.23265141        0.78333605        0.02622429        0.72063202        0.03040541        0.00485818        0.00121615
       -4.22264140        0.81860648        0.02671898        0.75397728        0.03158713        0.00504693        0.00127615
       -4.21263139        0.85594846        0.02731014        0.78919678        0.03284921        0.00525381        0.00133852
       -4.20262138        0.89486857        0.02797877        0.82583122        0.03417778        0.00547805        0.00140274
       -4.19261137        0.93482305        0.02870415        0.86337526        0.03555700        0.00571842        0.00146821
       -4.18260136        0.97522843        0.02946426        0.90128742        0.03696927        0.00597320        0.00153428
       -4.17259135        1.01547385        0.03023626        0.93900166        0.03839549        0.00624020        0.00160024
       -4.16258134        1.05493491        0.03099707        0.97594031        0.03981545        0.00651674        0.00166535
       -4.15257133        1.09298851        0.03172391        1.01152777        0.04120828        0.00679969        0.00172886
       -4.14256132        1.12902807        0.03239501        1.04520464        0.04255289        0.00708552        0.00179001
       -4.13255131        1.16247878        0.03299010        1.07644174        0.04382850        0.00737040        0.00184804
       -4.12254130        1.19281214        0.03349105        1.10475345        0.04501519        0.00765024        0.00190222
       -4.11253129        1.21955933        0.03388230        1.12970998        0.04609437        0.00792081        0.00195187
       -4.10252128        1.24232291        0.03415126        1.15094806        0.04704933        0.00817789        0.00199636
       -4.09251127        1.26078641        0.03428862        1.16817968        0.04786565        0.00841733        0.00203513
       -4.08250126        1.27472161        0.03428845        1.18119867        0.04853159        0.00863519        0.00206771
       -4.07249125        1.28399308        0.03414824        1.18988484        0.04903841        0.00882788        0.00209372
       -4.06248124        1.28856005        0.03386881        1.19420557        0.04938056        0.00899223        0.00211287
       -4.05247123        1.28847559        0.03345411        1.19421498        0.04955589        0.00912561        0.00212500
       -4.04246122        1.28388310        0.03291086        1.19005066        0.04956555        0.00922600        0.00213003
       -4.03245121        1.27501042        0.03224821        1.18192810        0.04941406        0.00929204        0.00212802
       -4.02244120        1.26216176        0.03147729        1.17013323        0.04910905        0.00932309        0.00211909
       -4.01243119        1.24570775        0.03061077        1.15501317        0.04866107        0.00931923        0.00210351
       -4.00242118        1.22607401        0.02966234        1.13696555        0.04808323        0.00928126        0.00208162
       -3.99241117        1.20372865        0.02864636        1.11642689        0.04739087        0.00921067        0.00205386
       -3.98240116        1.17916894        0.02757740        1.09386018        0.04660103        0.00910960        0.00202073
       -3.97239115        1.15290777        0.02646989        1.06974223        0.04573206        0.00898077        0.00198281
       -3.96238114        1.12546004        0.02533787        1.04455096        0.04480308        0.00882739        0.00194074
       -3.95237113        1.09732960        0.02419470        1.01875319        0.04383344        0.00865309        0.00189518
       -3.94236112        1.06899686        0.02305292        0.99279306        0.04284225        0.00846178        0.00184685
       -3.93235111        1.04090763        0.02192413        0.96708163        0.04184788        0.00825753        0.00179645
       -3.92234110        1.01346332        0.02081887        0.94198770        0.04086754        0.00804452        0.00174470
       -3.91233109        0.98701291        0.01974656        0.91783042        0.03991681        0.00782683        0.00169229
       -3.90232108        0.96184677        0.01871551        0.89487358        0.03900939        0.00760841        0.00163988
       -3.89231107        0.93819267        0.01773289        0.87332198        0.03815678        0.00739292        0.00158810
       -3.88230106        0.91621390        0.01680469        0.85331992        0.03736811        0.00718368        0.00153750
       -3.87229105        0.89600966        0.01593575        0.83495169        0.03665006        0.00698358        0.00148858
       -3.86228104        0.87761752        0.01512976        0.81824417        0.03600685        0.00679499        0.00144175
       -3.85227103        0.86101793        0.01438928        0.80317122        0.03544030        0.00661977        0.00139735
       -3.84226102        0.84614042        0.01371573        0.78965978        0.03495001        0.00645925        0.00135564
       -3.83225101        0.83287123        0.01310946        0.77759723        0.03453358        0.00631420        0.00131676
       -3.82224100        0.82106203        0.01256975        0.76683969        0.03418690        0.00618486        0.00128082
       -3.81223099        0.81053925        0.01209494        0.75722097        0.03390449        0.00607103        0.00124783
       -3.80222098        0.80111362        0.01168243        0.74856155        0.03367985        0.00597207        0.00121772
       -3.79221097        0.79258957        0.01132887        0.74067748        0.03350583        0.00588700        0.00119039
       -3.78220096        0.78477409        0.01103022        0.73338856        0.03337503        0.00581459        0.00116569
       -3.77219095        0.77748461        0.01078192        0.72652578        0.03328009        0.00575339        0.00114342
       -3.76218094        0.77055587        0.01057904        0.71993751        0.03321402        0.00570191        0.00112339
       -3.75217093        0.76384542        0.01041640        0.71349456        0.03317047        0.00565861        0.00110538
       -3.74216092        0.75723766        0.01028877        0.70709376        0.03314394        0.00562201        0.00108918
       -3.73215091        0.75064651        0.01019099        0.70066026        0.03312989        0.00559078        0.00107460
       -3.72214090        0.74401657        0.01011812        0.69414838        0.03312487        0.00556373        0.00106147
       -3.71213089        0.73732284        0.01006554        0.68754118        0.03312655        0.00553993        0.00104963
       -3.70212088        0.73056923        0.01002907        0.68084887        0.03313365        0.00551865        0.00103899
       -3.69211087        0.72378583        0.01000501        0.67410604        0.03314589        0.00549943        0.00102946
       -3.68210086        0.71702507        0.00999019        0.66736799        0.03316387        0.00548202        0.00102100
       -3.67209085        0.71035703        0.00998202        0.66070609        0.03318889        0.00546644        0.00101359
       -3.66208084        0.70386391        0.00997842        0.65420264        0.03322276        0.00545285        0.00100724
       -3.65207083        0.69763395        0.00997782        0.64794497        0.03326755        0.00544160        0.00100200
       -3.64206082        0.69175503        0.00997909        0.64201946        0.03332542        0.00543314        0.00099793
       -3.63205081        0.68630805        0.00998147        0.63650523        0.03339833        0.00542796        0.00099507
       -3.62204080        0.68136059        0.00998450        0.63146822        0.03348779        0.00542657        0.00099352
       -3.61203079        0.67696096        0.00998788        0.62695563        0.03359468        0.00542945        0.00099332
       -3.60202078        0.67313313        0.00999144        0.62299115        0.03371904        0.00543696        0.00099453
       -3.59201077        0.66987280        0.00999502        0.61957135        0.03385990        0.00544935        0.00099718
       -3.58200076        0.66714493        0.00999839        0.61666340        0.03401515        0.00546671        0.00100130
       -3.57199075        0.66488290        0.01000120        0.61420445        0.03418149        0.00548891        0.00100684
       -3.56198074        0.66298961        0.01000295        0.61210275        0.03435447        0.00551567        0.00101376
       -3.55197073        0.66134049        0.01000295        0.61024065        0.03452845        0.00554647        0.00102198
       -3.54196072        0.65978829        0.01000030        0.60847923        0.03469682        0.00558059        0.00103135
       -3.53195071        0.65816958        0.00999398        0.60666459        0.03485213        0.00561715        0.00104172
       -3.52194070        0.65631247        0.00998280        0.60463533        0.03498635        0.00565510        0.00105289
       -3.51193069        0.65404532        0.00996551        0.60223080        0.03509113        0.00569326        0.00106462
       -3.50192068        0.65120568        0.00994087        0.59929967        0.03515811        0.00573039        0.00107665
       -3.49191067        0.64764908        0.00990766        0.59570826        0.03517929        0.00576516        0.00108870
       -3.48190066        0.64325702        0.00986484        0.59134814        0.03514728        0.00579627        0.00110048
       -3.47189065        0.63794371        0.00981153        0.58614234        0.03505569        0.00582246        0.00111168
       -3.46188064        0.63166108        0.00974715        0.58005005        0.03489935        0.00584254        0.00112199
       -3.45187063        0.62440183        0.00967140        0.57306925        0.03467461        0.00585544        0.00113113
       -3.44186062        0.61620023        0.00958432        0.56523733        0.03437948        0.00586028        0.00113881
       -3.43185061        0.60713093        0.00948633        0.55662962        0.03401384        0.00585634        0.00114479
       -3.42184060        0.59730562        0.00937818        0.54735597        0.03357946        0.00584316        0.00114885
       -3.41183059        0.58686809        0.00926097        0.53755570        0.03308007        0.00582052        0.00115084
       -3.40182058        0.57598788        0.00913612        0.52739137        0.03252130        0.00578847        0.00115062
       -3.39181057        0.56485309        0.00900531        0.51704165        0.03191062        0.00574735        0.00114816
       -3.38180056        0.55366282        0.00887047        0.50669389        0.03125721        0.00569780        0.00114345
       -3.37179055        0.54261960        0.00873373        0.49653680        0.03057173        0.00564076        0.00113658
       -3.36178054        0.53192236        0.00859735        0.48675372        0.02986614        0.00557745        0.00112769
