#  aims_uuid : F128D8B5-E5F3-407F-ADF6-DC6AC86BB935                                
#  angular momentum projected density of states for species S as calculated by FHI-aims 
# The energy reference for this output is the chemical potential, mu =      -5.106688 eV
#      Energy (eV)         total dos     l= 0              l= 1              l= 2              l= 3              l= 4
       -4.89331207        1.06598776        0.07820239        0.92718326        0.05357761        0.00642088        0.00060362
       -4.88330206        1.11481323        0.08237087        0.96861958        0.05645926        0.00673171        0.00063181
       -4.87329205        1.16247986        0.08645345        1.00904959        0.05928015        0.00703469        0.00066198
       -4.86328204        1.20863418        0.09042693        1.04816537        0.06202005        0.00732787        0.00069397
       -4.85327203        1.25293825        0.09426892        1.08567342        0.06465894        0.00760939        0.00072758
       -4.84326202        1.29507176        0.09795786        1.12129669        0.06717713        0.00787748        0.00076259
       -4.83325201        1.33473348        0.10147307        1.15477597        0.06955525        0.00813046        0.00079872
       -4.82324200        1.37164250        0.10479480        1.18587086        0.07177440        0.00836676        0.00083568
       -4.81323199        1.40553929        0.10790430        1.21436067        0.07381629        0.00858492        0.00087312
       -4.80322198        1.43618698        0.11078389        1.24004537        0.07566344        0.00878359        0.00091068
       -4.79321197        1.46337285        0.11341706        1.26274676        0.07729947        0.00896160        0.00094796
       -4.78320196        1.48691026        0.11578851        1.28230985        0.07870946        0.00911789        0.00098454
       -4.77319195        1.50664077        0.11788422        1.29860466        0.07988029        0.00925162        0.00101998
       -4.76318194        1.52243647        0.11969147        1.31152797        0.08080106        0.00936211        0.00105385
       -4.75317193        1.53420229        0.12119887        1.32100532        0.08146349        0.00944891        0.00108570
       -4.74316192        1.54187808        0.12239635        1.32699261        0.08186224        0.00951177        0.00111511
       -4.73315191        1.54544020        0.12327516        1.32947750        0.08199518        0.00955068        0.00114167
       -4.72314190        1.54490250        0.12382788        1.32848014        0.08186360        0.00956586        0.00116503
       -4.71313189        1.54031657        0.12404844        1.32405333        0.08147223        0.00955772        0.00118485
       -4.70312188        1.53177108        0.12393221        1.31628190        0.08082920        0.00952690        0.00120087
       -4.69311187        1.51939043        0.12347611        1.30528133        0.07994585        0.00947422        0.00121290
       -4.68310186        1.50333261        0.12267888        1.29119585        0.07883641        0.00940067        0.00122081
       -4.67309185        1.48378657        0.12154125        1.27419584        0.07751759        0.00930736        0.00122453
       -4.66308184        1.46096917        0.12006638        1.25447505        0.07600813        0.00919552        0.00122409
       -4.65307183        1.43512199        0.11826018        1.23224750        0.07432828        0.00906647        0.00121956
       -4.64306182        1.40650801        0.11613167        1.20774440        0.07249924        0.00892158        0.00121111
       -4.63305181        1.37540849        0.11369342        1.18121114        0.07054269        0.00876227        0.00119896
       -4.62304180        1.34211988        0.11096176        1.15290444        0.06848031        0.00858998        0.00118338
       -4.61303179        1.30695092        0.10795702        1.12308967        0.06633337        0.00840618        0.00116468
       -4.60302178        1.27021979        0.10470355        1.09203825        0.06412243        0.00821233        0.00114324
       -4.59301177        1.23225121        0.10122954        1.06002524        0.06186707        0.00800994        0.00111942
       -4.58300176        1.19337343        0.09756675        1.02732676        0.05958577        0.00780051        0.00109364
       -4.57299175        1.15391497        0.09374993        0.99421739        0.05729578        0.00758556        0.00106630
       -4.56298174        1.11420109        0.08981612        0.96096735        0.05501313        0.00736665        0.00103783
       -4.55297173        1.07454991        0.08580376        0.92783955        0.05275263        0.00714535        0.00100861
       -4.54296172        1.03526837        0.08175172        0.89508645        0.05052791        0.00692324        0.00097906
       -4.53295171        0.99664808        0.07769823        0.86294692        0.04835149        0.00670191        0.00094954
       -4.52294170        0.95896134        0.07367988        0.83164325        0.04623486        0.00648294        0.00092040
       -4.51293169        0.92245754        0.06973062        0.80137847        0.04418855        0.00626791        0.00089199
       -4.50292168        0.88736026        0.06588089        0.77233430        0.04222214        0.00605832        0.00086460
       -4.49291167        0.85386536        0.06215700        0.74466985        0.04034435        0.00585563        0.00083853
       -4.48290166        0.82214021        0.05858064        0.71852131        0.03856304        0.00566117        0.00081405
       -4.47289165        0.79232425        0.05516866        0.69400273        0.03688527        0.00547619        0.00079141
       -4.46288164        0.76453095        0.05193312        0.67120798        0.03531725        0.00530177        0.00077084
       -4.45287163        0.73885106        0.04888149        0.65021371        0.03386444        0.00513884        0.00075258
       -4.44286162        0.71535702        0.04601716        0.63108332        0.03253150        0.00498818        0.00073685
       -4.43285161        0.69410823        0.04334003        0.61387158        0.03132238        0.00485039        0.00072386
       -4.42284160        0.67515688        0.04084724        0.59862964        0.03024027        0.00472588        0.00071384
       -4.41283159        0.65855380        0.03853395        0.58541015        0.02928775        0.00461495        0.00070701
       -4.40282158        0.64435410        0.03639413        0.57427193        0.02846674        0.00451772        0.00070358
       -4.39281157        0.63262204        0.03442132        0.56528408        0.02777863        0.00443422        0.00070379
       -4.38280156        0.62343478        0.03260922        0.55852903        0.02722429        0.00436441        0.00070784
       -4.37279155        0.61688482        0.03095226        0.55410424        0.02680416        0.00430818        0.00071598
       -4.36278154        0.61308067        0.02944594        0.55212255        0.02651834        0.00426545        0.00072839
       -4.35277153        0.61214587        0.02808701        0.55271083        0.02636657        0.00423616        0.00074530
       -4.34276152        0.61421611        0.02687356        0.55600700        0.02634836        0.00422031        0.00076688
       -4.33275151        0.61943465        0.02580484        0.56215548        0.02646299        0.00421804        0.00079330
       -4.32274150        0.62794600        0.02488105        0.57130113        0.02670951        0.00422961        0.00082470
       -4.31273149        0.63988823        0.02410295        0.58358187        0.02708678        0.00425544        0.00086119
       -4.30272148        0.65538405        0.02347148        0.59912023        0.02759341        0.00429611        0.00090283
       -4.29271147        0.67453104        0.02298719        0.61801414        0.02822771        0.00435236        0.00094964
       -4.28270146        0.69739139        0.02264982        0.64032733        0.02898758        0.00442508        0.00100159
       -4.27269145        0.72398159        0.02245779        0.66607962        0.02987037        0.00451524        0.00105856
       -4.26268144        0.75426252        0.02240777        0.69523770        0.03087275        0.00462388        0.00112041
       -4.25267143        0.78813043        0.02249434        0.72770672        0.03199045        0.00475203        0.00118689
       -4.24266142        0.82540934        0.02270971        0.76332325        0.03321809        0.00490063        0.00125766
       -4.23265141        0.86584534        0.02304360        0.80185006        0.03454891        0.00507045        0.00133232
       -4.22264140        0.90910325        0.02348318        0.84297311        0.03597456        0.00526201        0.00141038
       -4.21263139        0.95476612        0.02401322        0.88630130        0.03748489        0.00547550        0.00149122
       -4.20262138        1.00233787        0.02461627        0.93136899        0.03906776        0.00571068        0.00157417
       -4.19261137        1.05124914        0.02527304        0.97764186        0.04070898        0.00596682        0.00165845
       -4.18260136        1.10086667        0.02596285        1.02452576        0.04239223        0.00624264        0.00174320
       -4.17259135        1.15050579        0.02666414        1.07137870        0.04409916        0.00653628        0.00182751
       -4.16258134        1.19944587        0.02735509        1.11752551        0.04580958        0.00684530        0.00191039
       -4.15257133        1.24694821        0.02801424        1.16227479        0.04750169        0.00716666        0.00199083
       -4.14256132        1.29227559        0.02862111        1.20493740        0.04915250        0.00749678        0.00206779
       -4.13255131        1.33471284        0.02915681        1.24484581        0.05073834        0.00783162        0.00214026
       -4.12254130        1.37358736        0.02960459        1.28137342        0.05223539        0.00816672        0.00220724
       -4.11253129        1.40828871        0.02995028        1.31395293        0.05362034        0.00849735        0.00226780
       -4.10252128        1.43828638        0.03018270        1.34209294        0.05487102        0.00881862        0.00232111
       -4.09251127        1.46314485        0.03029382        1.36539193        0.05596709        0.00912560        0.00236642
       -4.08250126        1.48253520        0.03027894        1.38354901        0.05689066        0.00941348        0.00240312
       -4.07249125        1.49624287        0.03013665        1.39637092        0.05762684        0.00967769        0.00243077
       -4.06248124        1.50417112        0.02986869        1.40377505        0.05816427        0.00991405        0.00244906
       -4.05247123        1.50634021        0.02947971        1.40578833        0.05849542        0.01011888        0.00245787
       -4.04246122        1.50288245        0.02897692        1.40254231        0.05861688        0.01028910        0.00245724
       -4.03245121        1.49403343        0.02836970        1.39426460        0.05852942        0.01042233        0.00244738
       -4.02244120        1.48012009        0.02766916        1.38126735        0.05823801        0.01051691        0.00242866
       -4.01243119        1.46154623        0.02688762        1.36393340        0.05775159        0.01057201        0.00240161
       -4.00242118        1.43877622        0.02603820        1.34270079        0.05708280        0.01058758        0.00236686
       -3.99241117        1.41231789        0.02513436        1.31804648        0.05624754        0.01056433        0.00232518
       -3.98240116        1.38270511        0.02418950        1.29046993        0.05526453        0.01050377        0.00227738
       -3.97239115        1.35048108        0.02321662        1.26047737        0.05415467        0.01040804        0.00222438
       -3.96238114        1.31618277        0.02222802        1.22856725        0.05294046        0.01027995        0.00216710
       -3.95237113        1.28032715        0.02123514        1.19521742        0.05164537        0.01012277        0.00210646
       -3.94236112        1.24339947        0.02024836        1.16087436        0.05029315        0.00994022        0.00204338
       -3.93235111        1.20584404        0.01927695        1.12594478        0.04890725        0.00973631        0.00197874
       -3.92234110        1.16805745        0.01832901        1.09078965        0.04751021        0.00951521        0.00191336
       -3.91233109        1.13038437        0.01741149        1.05572059        0.04612314        0.00928116        0.00184799
       -3.90232108        1.09311578        0.01653023        1.02099871        0.04476522        0.00903835        0.00178327
       -3.89231107        1.05648955        0.01569002        0.98683556        0.04345339        0.00879078        0.00171979
       -3.88230106        1.02069293        0.01489467        0.95339603        0.04220199        0.00854222        0.00165801
       -3.87229105        0.98586691        0.01414708        0.92080282        0.04102261        0.00829609        0.00159830
       -3.86228104        0.95211190        0.01344933        0.88914223        0.03992400        0.00805539        0.00154095
       -3.85227103        0.91949440        0.01280275        0.85847080        0.03891205        0.00782267        0.00148613
       -3.84226102        0.88805433        0.01220794        0.82882246        0.03798994        0.00760004        0.00143396
       -3.83225101        0.85781246        0.01166485        0.80021571        0.03715835        0.00738908        0.00138447
       -3.82224100        0.82877766        0.01117283        0.77266056        0.03641569        0.00719094        0.00133765
       -3.81223099        0.80095353        0.01073062        0.74616473        0.03575847        0.00700629        0.00129342
       -3.80222098        0.77434407        0.01033642        0.72073882        0.03518168        0.00683545        0.00125170
       -3.79221097        0.74895814        0.00998791        0.69640026        0.03467923        0.00667837        0.00121236
       -3.78220096        0.72481242        0.00968228        0.67317581        0.03424431        0.00653474        0.00117529
       -3.77219095        0.70193297        0.00941627        0.65110251        0.03386980        0.00640404        0.00114035
       -3.76218094        0.68035517        0.00918624        0.63022723        0.03354867        0.00628559        0.00110745
       -3.75217093        0.66012229        0.00898824        0.61060469        0.03327423        0.00617864        0.00107649
       -3.74216092        0.64128283        0.00881804        0.59229452        0.03304043        0.00608243        0.00104741
       -3.73215091        0.62388693        0.00867129        0.57535733        0.03284198        0.00599619        0.00102014
       -3.72214090        0.60798223        0.00854355        0.55985027        0.03267449        0.00591924        0.00099468
       -3.71213089        0.59360936        0.00843041        0.54582249        0.03253450        0.00585095        0.00097101
       -3.70212088        0.58079770        0.00832760        0.53331074        0.03241939        0.00579082        0.00094916
       -3.69211087        0.56956143        0.00823109        0.52233544        0.03232735        0.00573841        0.00092914
       -3.68210086        0.55989635        0.00813715        0.51289761        0.03225723        0.00569339        0.00091098
       -3.67209085        0.55177760        0.00804245        0.50497660        0.03220833        0.00565550        0.00089472
       -3.66208084        0.54515834        0.00794413        0.49852903        0.03218028        0.00562453        0.00088038
       -3.65207083        0.53996952        0.00783980        0.49348861        0.03217283        0.00560032        0.00086796
       -3.64206082        0.53612058        0.00772760        0.48976713        0.03218569        0.00558269        0.00085747
       -3.63205081        0.53350111        0.00760621        0.48725618        0.03221840        0.00557144        0.00084888
       -3.62204080        0.53198319        0.00747477        0.48582975        0.03227017        0.00556636        0.00084214
       -3.61203079        0.53142438        0.00733294        0.48534724        0.03233986        0.00556716        0.00083717
       -3.60202078        0.53167101        0.00718075        0.48565699        0.03242589        0.00557348        0.00083390
       -3.59201077        0.53256178        0.00701862        0.48659987        0.03252622        0.00558488        0.00083220
       -3.58200076        0.53393138        0.00684725        0.48801297        0.03263838        0.00560085        0.00083194
       -3.57199075        0.53561403        0.00666756        0.48973322        0.03275949        0.00562079        0.00083297
       -3.56198074        0.53744694        0.00648065        0.49160079        0.03288631        0.00564405        0.00083514
       -3.55197073        0.53927337        0.00628769        0.49346226        0.03301527        0.00566989        0.00083826
       -3.54196072        0.54094556        0.00608991        0.49517340        0.03314253        0.00569755        0.00084217
       -3.53195071        0.54232712        0.00588854        0.49660161        0.03326405        0.00572623        0.00084669
       -3.52194070        0.54329513        0.00568476        0.49762801        0.03337559        0.00575511        0.00085165
       -3.51193069        0.54374176        0.00547973        0.49814901        0.03347276        0.00578337        0.00085689
       -3.50192068        0.54357548        0.00527450        0.49807746        0.03355108        0.00581020        0.00086223
       -3.49191067        0.54272181        0.00507010        0.49734338        0.03360598        0.00583482        0.00086753
       -3.48190066        0.54112359        0.00486745        0.49589418        0.03363285        0.00585648        0.00087264
       -3.47189065        0.53874089        0.00466743        0.49369448        0.03362709        0.00587447        0.00087742
       -3.46188064        0.53555052        0.00447088        0.49072554        0.03358423        0.00588813        0.00088174
       -3.45187063        0.53154530        0.00427858        0.48698437        0.03349997        0.00589688        0.00088549
       -3.44186062        0.52673305        0.00409130        0.48248262        0.03337037        0.00590021        0.00088856
       -3.43185061        0.52113554        0.00390975        0.47724526        0.03319200        0.00589767        0.00089086
       -3.42184060        0.51478739        0.00373465        0.47130935        0.03296216        0.00588893        0.00089230
       -3.41183059        0.50773517        0.00356671        0.46472279        0.03267905        0.00587377        0.00089284
       -3.40182058        0.50003654        0.00340661        0.45754329        0.03234210        0.00585210        0.00089243
       -3.39181057        0.49175981        0.00325502        0.44983760        0.03195212        0.00582400        0.00089107
       -3.38180056        0.48298366        0.00311262        0.44168101        0.03151157        0.00578969        0.00088878
       -3.37179055        0.47379718        0.00298007        0.43315715        0.03102474        0.00574959        0.00088562
       -3.36178054        0.46430006        0.00285807        0.42435807        0.03049790        0.00570435        0.00088168
