#  aims_uuid : F128D8B5-E5F3-407F-ADF6-DC6AC86BB935                                
#  angular momentum projected density of states for species Mo as calculated by FHI-aims 
# The energy reference for this output is the chemical potential, mu =      -5.106688 eV
#      Energy (eV)         total dos     l= 0              l= 1              l= 2              l= 3              l= 4
       -4.89331207        1.02550102        0.04706676        0.15163704        0.81408733        0.01099037        0.00171952
       -4.88330206        1.07251058        0.05294143        0.16119776        0.84498268        0.01157235        0.00181635
       -4.87329205        1.11821760        0.05922522        0.17085121        0.87405790        0.01217159        0.00191168
       -4.86328204        1.16225751        0.06588797        0.18051005        0.90107095        0.01278365        0.00200489
       -4.85327203        1.20428335        0.07288787        0.19007913        0.92581721        0.01340375        0.00209540
       -4.84326202        1.24396673        0.08017127        0.19945621        0.94812984        0.01402684        0.00218258
       -4.83325201        1.28099813        0.08767289        0.20853302        0.96787876        0.01464766        0.00226581
       -4.82324200        1.31508694        0.09531655        0.21719669        0.98496846        0.01526076        0.00234448
       -4.81323199        1.34596172        0.10301644        0.22533166        0.99933506        0.01586062        0.00241794
       -4.80322198        1.37337112        0.11067879        0.23282192        1.01094321        0.01644162        0.00248557
       -4.79321197        1.39708574        0.11820413        0.23955373        1.01978288        0.01699824        0.00254676
       -4.78320196        1.41690106        0.12548980        0.24541869        1.02586663        0.01752502        0.00260092
       -4.77319195        1.43264145        0.13243286        0.25031697        1.02922738        0.01801675        0.00264749
       -4.76318194        1.44416499        0.13893302        0.25416070        1.02991676        0.01846852        0.00268599
       -4.75317193        1.45136873        0.14489568        0.25687718        1.02800403        0.01887583        0.00271601
       -4.74316192        1.45419400        0.15023473        0.25841189        1.02357545        0.01923471        0.00273722
       -4.73315191        1.45263110        0.15487515        0.25873096        1.01673381        0.01954176        0.00274941
       -4.72314190        1.44672297        0.15875513        0.25782299        1.00759806        0.01979429        0.00275249
       -4.71313189        1.43656725        0.16182773        0.25570011        0.99630259        0.01999034        0.00274648
       -4.70312188        1.42231656        0.16406191        0.25239813        0.98299624        0.02012873        0.00273155
       -4.69311187        1.40417658        0.16544303        0.24797578        0.96784073        0.02020907        0.00270797
       -4.68310186        1.38240219        0.16597262        0.24251306        0.95100857        0.02023178        0.00267615
       -4.67309185        1.35729166        0.16566774        0.23610873        0.93268053        0.02019806        0.00263660
       -4.66308184        1.32917923        0.16455969        0.22887712        0.91304267        0.02010982        0.00258993
       -4.65307183        1.29842665        0.16269244        0.22094451        0.89228324        0.01996964        0.00253682
       -4.64306182        1.26541405        0.16012068        0.21244502        0.87058961        0.01978073        0.00247802
       -4.63305181        1.23053080        0.15690774        0.20351656        0.84814540        0.01954680        0.00241430
       -4.62304180        1.19416672        0.15312342        0.19429675        0.82512803        0.01927203        0.00234648
       -4.61303179        1.15670423        0.14884182        0.18491921        0.80170688        0.01896094        0.00227538
       -4.60302178        1.11851164        0.14413934        0.17551013        0.77804202        0.01861833        0.00220181
       -4.59301177        1.07993782        0.13909281        0.16618559        0.75428366        0.01824921        0.00212656
       -4.58300176        1.04130837        0.13377783        0.15704927        0.73057221        0.01785866        0.00205039
       -4.57299175        1.00292315        0.12826746        0.14819098        0.70703885        0.01745182        0.00197404
       -4.56298174        0.96505523        0.12263104        0.13968571        0.68380658        0.01703371        0.00189819
       -4.55297173        0.92795086        0.11693332        0.13159335        0.66099146        0.01660924        0.00182348
       -4.54296172        0.89183040        0.11123388        0.12395891        0.63870405        0.01618307        0.00175049
       -4.53295171        0.85689001        0.10558663        0.11681320        0.61705085        0.01575955        0.00167978
       -4.52294170        0.82330374        0.10003959        0.11017394        0.59613573        0.01534266        0.00161182
       -4.51293169        0.79122604        0.09463476        0.10404713        0.57606114        0.01493594        0.00154707
       -4.50292168        0.76079438        0.08940812        0.09842859        0.55692926        0.01454250        0.00148592
       -4.49291167        0.73213208        0.08438970        0.09330575        0.53884297        0.01416494        0.00142873
       -4.48290166        0.70535103        0.07960374        0.08865943        0.52190663        0.01380541        0.00137583
       -4.47289165        0.68055446        0.07506882        0.08446568        0.50622682        0.01346564        0.00132751
       -4.46288164        0.65783955        0.07079809        0.08069760        0.49191288        0.01314693        0.00128405
       -4.45287163        0.63729990        0.06679952        0.07732702        0.47907734        0.01285030        0.00124573
       -4.44286162        0.61902777        0.06307605        0.07432614        0.46783625        0.01257651        0.00121282
       -4.43285161        0.60311601        0.05962597        0.07166901        0.45830923        0.01232619        0.00118562
       -4.42284160        0.58965964        0.05644315        0.06933273        0.45061941        0.01209990        0.00116445
       -4.41283159        0.57875691        0.05351743        0.06729858        0.44489301        0.01189822        0.00114968
       -4.40282158        0.57050998        0.05083499        0.06555279        0.44125866        0.01172183        0.00114171
       -4.39281157        0.56502491        0.04837887        0.06408713        0.43984633        0.01157156        0.00114102
       -4.38280156        0.56241114        0.04612952        0.06289916        0.44078591        0.01144839        0.00114815
       -4.37279155        0.56278044        0.04406543        0.06199229        0.44420552        0.01135348        0.00116372
       -4.36278154        0.56624520        0.04216381        0.06137552        0.45022934        0.01128813        0.00118839
       -4.35277153        0.57291629        0.04040141        0.06106294        0.45897526        0.01125375        0.00122292
       -4.34276152        0.58290039        0.03875525        0.06107303        0.47055220        0.01125180        0.00126811
       -4.33275151        0.59629689        0.03720345        0.06142772        0.48505723        0.01128368        0.00132481
       -4.32274150        0.61319429        0.03572594        0.06215126        0.50257249        0.01135071        0.00139390
       -4.31273149        0.63366633        0.03430518        0.06326905        0.52316189        0.01145396        0.00147625
       -4.30272148        0.65776752        0.03292667        0.06480624        0.54686765        0.01159424        0.00157272
       -4.29271147        0.68552845        0.03157938        0.06678631        0.57370670        0.01177195        0.00168412
       -4.28270146        0.71695061        0.03025595        0.06922963        0.60366684        0.01198706        0.00181113
       -4.27269145        0.75200091        0.02895274        0.07215200        0.63670284        0.01223900        0.00195433
       -4.26268144        0.79060599        0.02766963        0.07556319        0.67273245        0.01252662        0.00211411
       -4.25267143        0.83264645        0.02640971        0.07946557        0.71163239        0.01284815        0.00229063
       -4.24266142        0.87795120        0.02517876        0.08385293        0.75323458        0.01320113        0.00248379
       -4.23265141        0.92629227        0.02398460        0.08870930        0.79732274        0.01358244        0.00269319
       -4.22264140        0.97738048        0.02283635        0.09400818        0.84362963        0.01398824        0.00291808
       -4.21263139        1.03086214        0.02174374        0.09971185        0.89183518        0.01441403        0.00315734
       -4.20262138        1.08631753        0.02071630        0.10577120        0.94156597        0.01485461        0.00340946
       -4.19261137        1.14326125        0.01976271        0.11212572        0.99239610        0.01530420        0.00367251
       -4.18260136        1.20114495        0.01889020        0.11870411        1.04384997        0.01575647        0.00394421
       -4.17259135        1.25936270        0.01810409        0.12542512        1.09540699        0.01620465        0.00422185
       -4.16258134        1.31725896        0.01740745        0.13219902        1.14650843        0.01664165        0.00450241
       -4.15257133        1.37413940        0.01680091        0.13892936        1.19656633        0.01706023        0.00478257
       -4.14256132        1.42928409        0.01628271        0.14551513        1.24497433        0.01745316        0.00505877
       -4.13255131        1.48196300        0.01584869        0.15185327        1.29112033        0.01781341        0.00532731
       -4.12254130        1.53145304        0.01549259        0.15784136        1.33440029        0.01813436        0.00558444
       -4.11253129        1.57705620        0.01520636        0.16338042        1.37423300        0.01841000        0.00582642
       -4.10252128        1.61811799        0.01498049        0.16837771        1.41007500        0.01863512        0.00604967
       -4.09251127        1.65404535        0.01480442        0.17274934        1.44143525        0.01880549        0.00625085
       -4.08250126        1.68432332        0.01466703        0.17642262        1.46788871        0.01891801        0.00642695
       -4.07249125        1.70852968        0.01455697        0.17933809        1.48908838        0.01897082        0.00657542
       -4.06248124        1.72634690        0.01446309        0.18145101        1.50477524        0.01896337        0.00669419
       -4.05247123        1.73757089        0.01437481        0.18273234        1.51478551        0.01889646        0.00678178
       -4.04246122        1.74211613        0.01428237        0.18316915        1.51905510        0.01877217        0.00683734
       -4.03245121        1.74001700        0.01417716        0.18276452        1.51762083        0.01859384        0.00686064
       -4.02244120        1.73142533        0.01405187        0.18153687        1.51061856        0.01836592        0.00685211
       -4.01243119        1.71660420        0.01390066        0.17951883        1.49827811        0.01809382        0.00681278
       -4.00242118        1.69591843        0.01371930        0.17675574        1.48091537        0.01778376        0.00674427
       -3.99241117        1.66982209        0.01350516        0.17330389        1.45892185        0.01744249        0.00664870
       -3.98240116        1.63884373        0.01325728        0.16922851        1.43275214        0.01707715        0.00652864
       -3.97239115        1.60356978        0.01297630        0.16460174        1.40290975        0.01669500        0.00638700
       -3.96238114        1.56462701        0.01266434        0.15950054        1.36993203        0.01630319        0.00622691
       -3.95237113        1.52266461        0.01232492        0.15400472        1.33437471        0.01590859        0.00605167
       -3.94236112        1.47833659        0.01196274        0.14819508        1.29679658        0.01551760        0.00586461
       -3.93235111        1.43228522        0.01158343        0.14215177        1.25774510        0.01513593        0.00566899
       -3.92234110        1.38512598        0.01119339        0.13595281        1.21774332        0.01476852        0.00546793
       -3.91233109        1.33743457        0.01079942        0.12967287        1.17727851        0.01441944        0.00526433
       -3.90232108        1.28973634        0.01040847        0.12338223        1.13679305        0.01409178        0.00506081
       -3.89231107        1.24249835        0.01002736        0.11714600        1.09667770        0.01378766        0.00485963
       -3.88230106        1.19612437        0.00966251        0.11102354        1.05726740        0.01350821        0.00466271
       -3.87229105        1.15095255        0.00931968        0.10506803        1.01883960        0.01325365        0.00447159
       -3.86228104        1.10725590        0.00900377        0.09932625        0.98161510        0.01302333        0.00428745
       -3.85227103        1.06524527        0.00871868        0.09383849        0.94576111        0.01281589        0.00411110
       -3.84226102        1.02507436        0.00846721        0.08863864        0.91139612        0.01262936        0.00394303
       -3.83225101        0.98684656        0.00825099        0.08375437        0.87859641        0.01246132        0.00378347
       -3.82224100        0.95062293        0.00807054        0.07920742        0.84740347        0.01230912        0.00363238
       -3.81223099        0.91643087        0.00792530        0.07501400        0.81783199        0.01217000        0.00348958
       -3.80222098        0.88427288        0.00781376        0.07118522        0.78987790        0.01204128        0.00335472
       -3.79221097        0.85413504        0.00773360        0.06772760        0.76352588        0.01192055        0.00322740
       -3.78220096        0.82599446        0.00768184        0.06464355        0.73875612        0.01180577        0.00310718
       -3.77219095        0.79982561        0.00765504        0.06193189        0.71554969        0.01169538        0.00299362
       -3.76218094        0.77560504        0.00764941        0.05958832        0.69389258        0.01158840        0.00288632
       -3.75217093        0.75331436        0.00766106        0.05760579        0.67377811        0.01148444        0.00278495
       -3.74216092        0.73294158        0.00768604        0.05597491        0.65520767        0.01138371        0.00268925
       -3.73215091        0.71448064        0.00772050        0.05468414        0.63819004        0.01128693        0.00259903
       -3.72214090        0.69792960        0.00776078        0.05372003        0.62273926        0.01119534        0.00251419
       -3.71213089        0.68328754        0.00780342        0.05306729        0.60887165        0.01111051        0.00243468
       -3.70212088        0.67055069        0.00784524        0.05270882        0.59660189        0.01103422        0.00236051
       -3.69211087        0.65970815        0.00788334        0.05262571        0.58593901        0.01096837        0.00229172
       -3.68210086        0.65073759        0.00791510        0.05279719        0.57688219        0.01091476        0.00222835
       -3.67209085        0.64360123        0.00793815        0.05320054        0.56941713        0.01087496        0.00217045
       -3.66208084        0.63824271        0.00795041        0.05381108        0.56351298        0.01085021        0.00211804
       -3.65207083        0.63458474        0.00795003        0.05460216        0.55912021        0.01084125        0.00207109
       -3.64206082        0.63252808        0.00793544        0.05554520        0.55616963        0.01084826        0.00202954
       -3.63205081        0.63195169        0.00790531        0.05660989        0.55457244        0.01087077        0.00199328
       -3.62204080        0.63271418        0.00785856        0.05776436        0.55422149        0.01090765        0.00196212
       -3.61203079        0.63465650        0.00779442        0.05897553        0.55499360        0.01095710        0.00193585
       -3.60202078        0.63760553        0.00771238        0.06020951        0.55675275        0.01101669        0.00191420
       -3.59201077        0.64137867        0.00761226        0.06143216        0.55935394        0.01108344        0.00189687
       -3.58200076        0.64578874        0.00749418        0.06260956        0.56264757        0.01115393        0.00188351
       -3.57199075        0.65064937        0.00735859        0.06370871        0.56648390        0.01122439        0.00187378
       -3.56198074        0.65578010        0.00720623        0.06469815        0.57071749        0.01129090        0.00186733
       -3.55197073        0.66101133        0.00703817        0.06554858        0.57521125        0.01134953        0.00186380
       -3.54196072        0.66618848        0.00685571        0.06623352        0.57983989        0.01139651        0.00186285
       -3.53195071        0.67117543        0.00666041        0.06672984        0.58449263        0.01142838        0.00186417
       -3.52194070        0.67585692        0.00645400        0.06701832        0.58907497        0.01144219        0.00186743
       -3.51193069        0.68013982        0.00623836        0.06708400        0.59350950        0.01143558        0.00187238
       -3.50192068        0.68395335        0.00601544        0.06691652        0.59773570        0.01140693        0.00187875
       -3.49191067        0.68724813        0.00578723        0.06651033        0.60170885        0.01135539        0.00188632
       -3.48190066        0.68999437        0.00555570        0.06586476        0.60539806        0.01128097        0.00189487
       -3.47189065        0.69217927        0.00532273        0.06498401        0.60878384        0.01118449        0.00190420
       -3.46188064        0.69380389        0.00509012        0.06387698        0.61185511        0.01106755        0.00191413
       -3.45187063        0.69487980        0.00485952        0.06255711        0.61460624        0.01093245        0.00192449
       -3.44186062        0.69542576        0.00463241        0.06104201        0.61703414        0.01078210        0.00193509
       -3.43185061        0.69546474        0.00441013        0.05935313        0.61913584        0.01061987        0.00194578
       -3.42184060        0.69502158        0.00419380        0.05751530        0.62090663        0.01044946        0.00195638
       -3.41183059        0.69412136        0.00398440        0.05555633        0.62233915        0.01027473        0.00196673
       -3.40182058        0.69278880        0.00378276        0.05350650        0.62342326        0.01009959        0.00197669
       -3.39181057        0.69104864        0.00358956        0.05139809        0.62414705        0.00992784        0.00198609
       -3.38180056        0.68892695        0.00340539        0.04926495        0.62449869        0.00976309        0.00199483
       -3.37179055        0.68645338        0.00323075        0.04714203        0.62446911        0.00960869        0.00200281
       -3.36178054        0.68366398        0.00306610        0.04506499        0.62405528        0.00946765        0.00200996
