#  aims_uuid : F128D8B5-E5F3-407F-ADF6-DC6AC86BB935                                
#  angular momentum projected density of states for species S as calculated by FHI-aims 
# The energy reference for this output is the chemical potential, mu =      -5.106688 eV
#      Energy (eV)         total dos     l= 0              l= 1              l= 2              l= 3              l= 4
       -4.89331207        1.03981189        0.07030437        0.91188252        0.05105164        0.00594946        0.00062391
       -4.88330206        1.08535545        0.07409827        0.95074758        0.05361128        0.00624721        0.00065111
       -4.87329205        1.13009285        0.07780093        0.98896560        0.05610840        0.00653872        0.00067921
       -4.86328204        1.17360207        0.08139044        1.02616093        0.05852066        0.00682205        0.00070799
       -4.85327203        1.21548289        0.08484672        1.06197715        0.06082642        0.00709535        0.00073724
       -4.84326202        1.25536414        0.08815155        1.09608402        0.06300498        0.00735685        0.00076674
       -4.83325201        1.29290955        0.09128855        1.12818296        0.06503693        0.00760485        0.00079625
       -4.82324200        1.32782192        0.09424313        1.15801113        0.06690436        0.00783775        0.00082556
       -4.81323199        1.35984588        0.09700240        1.18534393        0.06859111        0.00805402        0.00085442
       -4.80322198        1.38876915        0.09955506        1.20999624        0.07008301        0.00825223        0.00088260
       -4.79321197        1.41442265        0.10189128        1.23182240        0.07136806        0.00843105        0.00090986
       -4.78320196        1.43667950        0.10400258        1.25071510        0.07243660        0.00858926        0.00093595
       -4.77319195        1.45545311        0.10588171        1.26660348        0.07328148        0.00872578        0.00096065
       -4.76318194        1.47069462        0.10752260        1.27945050        0.07389814        0.00883966        0.00098372
       -4.75317193        1.48238983        0.10892017        1.28924990        0.07428465        0.00893016        0.00100494
       -4.74316192        1.49055575        0.11007036        1.29602281        0.07444179        0.00899669        0.00102410
       -4.73315191        1.49523701        0.11096995        1.29981421        0.07437293        0.00903891        0.00104102
       -4.72314190        1.49650218        0.11161655        1.30068948        0.07408395        0.00905668        0.00105552
       -4.71313189        1.49444025        0.11200857        1.29873103        0.07358305        0.00905012        0.00106748
       -4.70312188        1.48915731        0.11214513        1.29403528        0.07288057        0.00901954        0.00107679
       -4.69311187        1.48077365        0.11202610        1.28670996        0.07198866        0.00896554        0.00108338
       -4.68310186        1.46942128        0.11165215        1.27687197        0.07092102        0.00888890        0.00108725
       -4.67309185        1.45524199        0.11102474        1.26464568        0.06969256        0.00879062        0.00108839
       -4.66308184        1.43838601        0.11014632        1.25016181        0.06831909        0.00867192        0.00108688
       -4.65307183        1.41901119        0.10902041        1.23355682        0.06681700        0.00853415        0.00108281
       -4.64306182        1.39728266        0.10765179        1.21497275        0.06520294        0.00837886        0.00107632
       -4.63305181        1.37337294        0.10604673        1.19455732        0.06349362        0.00820771        0.00106757
       -4.62304180        1.34746218        0.10421312        1.17246427        0.06170555        0.00802247        0.00105677
       -4.61303179        1.31973847        0.10216072        1.14885372        0.05985486        0.00782504        0.00104412
       -4.60302178        1.29039798        0.09990127        1.12389226        0.05795721        0.00761737        0.00102988
       -4.59301177        1.25964483        0.09744860        1.09775288        0.05602761        0.00740147        0.00101427
       -4.58300176        1.22769035        0.09481864        1.07061433        0.05408041        0.00717941        0.00099757
       -4.57299175        1.19475191        0.09202936        1.04266007        0.05212922        0.00695326        0.00098001
       -4.56298174        1.16105105        0.08910061        1.01407666        0.05018684        0.00672509        0.00096185
       -4.55297173        1.12681117        0.08605388        0.98505174        0.04826525        0.00649696        0.00094333
       -4.54296172        1.09225473        0.08291194        0.95577169        0.04637557        0.00627086        0.00092468
       -4.53295171        1.05760036        0.07969845        0.92641915        0.04452798        0.00604867        0.00090611
       -4.52294170        1.02305992        0.07643746        0.89717065        0.04273176        0.00583220        0.00088784
       -4.51293169        0.98883596        0.07315302        0.86819461        0.04099519        0.00562309        0.00087004
       -4.50292168        0.95511968        0.06986859        0.83964980        0.03932556        0.00542283        0.00085290
       -4.49291167        0.92208972        0.06660667        0.81168462        0.03772918        0.00523269        0.00083657
       -4.48290166        0.88991190        0.06338838        0.78443716        0.03621137        0.00505377        0.00082121
       -4.47289165        0.85873988        0.06023316        0.75803628        0.03477654        0.00488694        0.00080696
       -4.46288164        0.82871693        0.05715853        0.73260336        0.03342821        0.00473285        0.00079397
       -4.45287163        0.79997845        0.05417997        0.70825496        0.03216919        0.00459196        0.00078238
       -4.44286162        0.77265521        0.05131090        0.68510584        0.03100163        0.00446451        0.00077233
       -4.43285161        0.74687687        0.04856276        0.66327235        0.02992719        0.00435060        0.00076398
       -4.42284160        0.72277564        0.04594510        0.64287569        0.02894721        0.00425017        0.00075747
       -4.41283159        0.70048956        0.04346584        0.62404483        0.02806287        0.00416304        0.00075298
       -4.40282158        0.68016515        0.04113148        0.60691870        0.02727529        0.00408899        0.00075069
       -4.39281157        0.66195910        0.03894734        0.59164752        0.02658572        0.00402773        0.00075079
       -4.38280156        0.64603876        0.03691782        0.57839286        0.02599561        0.00397899        0.00075348
       -4.37279155        0.63258132        0.03504665        0.56732644        0.02550672        0.00394255        0.00075896
       -4.36278154        0.62177141        0.03333700        0.55862762        0.02512109        0.00391826        0.00076745
       -4.35277153        0.61379736        0.03179166        0.55247940        0.02484109        0.00390606        0.00077915
       -4.34276152        0.60884598        0.03041304        0.54906330        0.02466934        0.00390604        0.00079426
       -4.33275151        0.60709624        0.02920318        0.54855308        0.02460860        0.00391840        0.00081298
       -4.32274150        0.60871186        0.02816365        0.55110759        0.02466164        0.00394351        0.00083547
       -4.31273149        0.61383326        0.02729541        0.55686307        0.02483104        0.00398187        0.00086187
       -4.30272148        0.62256914        0.02659858        0.56592519        0.02511897        0.00403412        0.00089229
       -4.29271147        0.63498804        0.02607219        0.57836111        0.02552696        0.00410097        0.00092680
       -4.28270146        0.65111029        0.02571397        0.59419202        0.02605565        0.00418324        0.00096541
       -4.27269145        0.67090072        0.02551999        0.61338643        0.02670448        0.00428175        0.00100807
       -4.26268144        0.69426251        0.02548447        0.63585460        0.02747148        0.00439727        0.00105470
       -4.25267143        0.72103250        0.02559954        0.66144435        0.02835300        0.00453051        0.00110511
       -4.24266142        0.75097830        0.02585508        0.68993864        0.02934351        0.00468200        0.00115907
       -4.23265141        0.78379748        0.02623864        0.72105507        0.03043547        0.00485204        0.00121626
       -4.22264140        0.81911903        0.02673544        0.75444744        0.03161921        0.00504065        0.00127629
       -4.21263139        0.85650708        0.02732846        0.78970957        0.03288288        0.00524747        0.00133871
       -4.20262138        0.89546716        0.02799868        0.82638124        0.03421253        0.00547174        0.00140297
       -4.19261137        0.93545458        0.02872535        0.86395625        0.03559226        0.00571224        0.00146849
       -4.18260136        0.97588511        0.02948645        0.90189243        0.03700435        0.00596728        0.00153460
       -4.17259135        1.01614732        0.03025913        0.93962324        0.03842968        0.00623466        0.00160061
       -4.16258134        1.05561645        0.03102030        0.97657068        0.03984799        0.00651170        0.00166578
       -4.15257133        1.09366929        0.03174723        1.01215904        0.04123837        0.00679529        0.00172935
       -4.14256132        1.12969937        0.03241813        1.04582902        0.04257975        0.00708190        0.00179057
       -4.13255131        1.16313226        0.03301278        1.07705175        0.04385138        0.00736768        0.00184867
       -4.12254130        1.19344003        0.03351308        1.10534211        0.04503339        0.00764852        0.00190293
       -4.11253129        1.22015462        0.03390351        1.13027098        0.04610728        0.00792019        0.00195267
       -4.10252128        1.24287951        0.03417153        1.15147586        0.04705644        0.00817843        0.00199725
       -4.09251127        1.26129927        0.03430786        1.16866965        0.04786658        0.00841907        0.00203611
       -4.08250126        1.27518675        0.03430660        1.18164710        0.04852612        0.00863814        0.00206879
       -4.07249125        1.28440763        0.03416531        1.19028895        0.04902645        0.00883202        0.00209489
       -4.06248124        1.28892219        0.03388484        1.19456349        0.04936222        0.00899752        0.00211413
       -4.05247123        1.28878449        0.03346914        1.19452566        0.04953140        0.00913196        0.00212634
       -4.04246122        1.28413881        0.03292497        1.19031377        0.04953533        0.00923329        0.00213145
       -4.03245121        1.27521371        0.03226150        1.18214394        0.04937864        0.00930014        0.00212949
       -4.02244120        1.26231398        0.03148986        1.17030259        0.04906908        0.00933184        0.00212061
       -4.01243119        1.24581068        0.03062270        1.15513720        0.04861729        0.00932844        0.00210505
       -4.00242118        1.22612976        0.02967373        1.13704567        0.04803645        0.00929075        0.00208317
       -3.99241117        1.20373949        0.02865727        1.11646470        0.04734190        0.00922024        0.00205539
       -3.98240116        1.17913726        0.02758788        1.09385739        0.04655072        0.00911906        0.00202221
       -3.97239115        1.15283596        0.02647996        1.06970063        0.04568121        0.00898994        0.00198423
       -3.96238114        1.12535055        0.02534751        1.04447244        0.04475244        0.00883610        0.00194207
       -3.95237113        1.09718487        0.02420388        1.01863972        0.04378370        0.00866117        0.00189640
       -3.94236112        1.06881941        0.02306159        0.99264677        0.04279401        0.00846910        0.00184793
       -3.93235111        1.04070006        0.02193219        0.96690484        0.04180165        0.00826400        0.00179738
       -3.92234110        1.01322842        0.02082621        0.94178299        0.04082371        0.00805005        0.00174546
       -3.91233109        0.98675368        0.01975308        0.91760066        0.03987570        0.00783137        0.00169287
       -3.90232108        0.96156648        0.01872108        0.89462197        0.03897120        0.00761194        0.00164029
       -3.89231107        0.93789490        0.01773739        0.87305209        0.03812164        0.00739545        0.00158833
       -3.88230106        0.91590253        0.01680801        0.85303566        0.03733607        0.00718524        0.00153755
       -3.87229105        0.89568885        0.01593780        0.83465726        0.03662112        0.00698421        0.00148846
       -3.86228104        0.87729168        0.01513048        0.81794403        0.03598094        0.00679476        0.00144148
       -3.85227103        0.86069163        0.01438862        0.80286998        0.03541731        0.00661878        0.00139694
       -3.84226102        0.84581829        0.01371369        0.78936210        0.03492982        0.00645758        0.00135510
       -3.83225101        0.83255786        0.01310606        0.77730770        0.03451604        0.00631195        0.00131612
       -3.82224100        0.82076185        0.01256506        0.76656271        0.03417185        0.00618213        0.00128009
       -3.81223099        0.81025637        0.01208906        0.75696059        0.03389176        0.00606792        0.00124703
       -3.80222098        0.80085175        0.01167550        0.74832140        0.03366929        0.00596868        0.00121689
       -3.79221097        0.79235191        0.01132105        0.74046063        0.03349729        0.00588341        0.00118954
       -3.78220096        0.78456319        0.01102169        0.73319744        0.03336835        0.00581087        0.00116483
       -3.77219095        0.77730236        0.01077289        0.72636212        0.03327514        0.00574963        0.00114258
       -3.76218094        0.77040343        0.01056971        0.71980231        0.03321067        0.00569816        0.00112258
       -3.75217093        0.76372318        0.01040698        0.71338805        0.03316862        0.00565492        0.00110461
       -3.74216092        0.75714528        0.01027945        0.70701546        0.03314347        0.00561842        0.00108847
       -3.73215091        0.75058293        0.01018196        0.70060897        0.03313073        0.00558732        0.00107395
       -3.72214090        0.74398005        0.01010954        0.69412224        0.03312694        0.00556044        0.00106089
       -3.71213089        0.73731104        0.01005753        0.68753779        0.03312979        0.00553681        0.00104913
       -3.70212088        0.73057932        0.01002171        0.68086533        0.03313799        0.00551572        0.00103856
       -3.69211087        0.72381452        0.00999836        0.67413907        0.03315130        0.00549669        0.00102910
       -3.68210086        0.71706877        0.00998427        0.66741402        0.03317029        0.00547948        0.00102071
       -3.67209085        0.71041193        0.00997679        0.66076140        0.03319628        0.00546410        0.00101336
       -3.66208084        0.70392609        0.00997382        0.65426342        0.03323107        0.00545071        0.00100707
       -3.65207083        0.69769950        0.00997376        0.64800747        0.03327674        0.00543966        0.00100189
       -3.64206082        0.69182014        0.00997545        0.64208004        0.03333542        0.00543139        0.00099785
       -3.63205081        0.68636912        0.00997814        0.63656050        0.03340906        0.00542639        0.00099503
       -3.62204080        0.68141427        0.00998133        0.63151510        0.03349918        0.00542518        0.00099349
       -3.61203079        0.67700429        0.00998476        0.62699138        0.03360663        0.00542822        0.00099330
       -3.60202078        0.67316358        0.00998825        0.62301349        0.03373144        0.00543588        0.00099451
       -3.59201077        0.66988833        0.00999168        0.61957845        0.03387262        0.00544841        0.00099716
       -3.58200076        0.66714399        0.00999484        0.61665393        0.03402807        0.00546589        0.00100126
       -3.57199075        0.66486452        0.00999743        0.61417762        0.03419447        0.00548821        0.00100679
       -3.56198074        0.66295337        0.00999897        0.61205827        0.03436737        0.00551506        0.00101369
       -3.55197073        0.66128652        0.00999882        0.61017873        0.03454114        0.00554594        0.00102188
       -3.54196072        0.65971725        0.00999614        0.60840057        0.03470918        0.00558014        0.00103123
       -3.53195071        0.65808263        0.00998990        0.60657034        0.03486406        0.00561676        0.00104157
       -3.52194070        0.65621123        0.00997897        0.60452701        0.03499776        0.00565477        0.00105271
       -3.51193069        0.65393177        0.00996211        0.60211027        0.03510196        0.00569300        0.00106442
       -3.50192068        0.65108210        0.00993809        0.59916905        0.03516834        0.00573019        0.00107644
       -3.49191067        0.64751797        0.00990569        0.59556984        0.03518892        0.00576504        0.00108848
       -3.48190066        0.64312099        0.00986386        0.59120430        0.03515634        0.00579624        0.00110025
       -3.47189065        0.63780538        0.00981170        0.58599546        0.03506424        0.00582253        0.00111145
       -3.46188064        0.63152299        0.00974859        0.57990242        0.03490749        0.00584273        0.00112177
       -3.45187063        0.62426632        0.00967421        0.57292299        0.03468244        0.00585578        0.00113091
       -3.44186062        0.61606938        0.00958855        0.56509432        0.03438713        0.00586078        0.00113860
       -3.43185061        0.60700645        0.00949198        0.55649141        0.03402144        0.00585702        0.00114460
       -3.42184060        0.59718881        0.00938521        0.54722374        0.03358714        0.00584404        0.00114868
       -3.41183059        0.58675978        0.00926930        0.53743022        0.03308796        0.00582161        0.00115068
       -3.40182058        0.57588839        0.00914562        0.52727300        0.03252951        0.00578977        0.00115049
       -3.39181057        0.56476227        0.00901582        0.51693028        0.03191925        0.00574887        0.00114804
       -3.38180056        0.55358002        0.00888180        0.50658902        0.03126632        0.00569953        0.00114336
       -3.37179055        0.54254373        0.00874565        0.49643754        0.03058136        0.00564268        0.00113651
       -3.36178054        0.53185194        0.00860963        0.48665883        0.02987632        0.00557954        0.00112764
