#  aims_uuid : F128D8B5-E5F3-407F-ADF6-DC6AC86BB935                                
#  angular momentum projected density of states for species Mo as calculated by FHI-aims 
# The energy reference for this output is the vacuum level =       0.000000 eV
#      Energy (eV)         total dos     l= 0              l= 1              l= 2              l= 3              l= 4
      -10.00000000        0.95550790        0.06603269        0.10350778        0.77545000        0.00921001        0.00130742
       -9.98998999        0.99422507        0.07199196        0.10975570        0.80149471        0.00961459        0.00136811
       -9.97997998        1.03158531        0.07807853        0.11615420        0.82589480        0.01002871        0.00142908
       -9.96996997        1.06725215        0.08423433        0.12265145        0.84842675        0.01044973        0.00148989
       -9.95995996        1.10091192        0.09039659        0.12919214        0.86889799        0.01087505        0.00155016
       -9.94994995        1.13227825        0.09649931        0.13571833        0.88714902        0.01130211        0.00160948
       -9.93993994        1.16109557        0.10247492        0.14217042        0.90305431        0.01172844        0.00166749
       -9.92992993        1.18714184        0.10825625        0.14848806        0.91652210        0.01215162        0.00172381
       -9.91991992        1.21023050        0.11377843        0.15461131        0.92749338        0.01256928        0.00177811
       -9.90990991        1.23021193        0.11898101        0.16048163        0.93594016        0.01297907        0.00183006
       -9.89989990        1.24697441        0.12380987        0.16604309        0.94186344        0.01337863        0.00187939
       -9.88988989        1.26044471        0.12821901        0.17124344        0.94529089        0.01376556        0.00192580
       -9.87987988        1.27058835        0.13217211        0.17603519        0.94627457        0.01413741        0.00196907
       -9.86986987        1.27740938        0.13564357        0.18037653        0.94488861        0.01449168        0.00200899
       -9.85985986        1.28094975        0.13861928        0.18423219        0.94122710        0.01482581        0.00204536
       -9.84984985        1.28128803        0.14109673        0.18757404        0.93540198        0.01513723        0.00207805
       -9.83983984        1.27853754        0.14308464        0.19038147        0.92754111        0.01542337        0.00210695
       -9.82982983        1.27284360        0.14460203        0.19264152        0.91778634        0.01568173        0.00213198
       -9.81981982        1.26438020        0.14567682        0.19434876        0.90629154        0.01590994        0.00215314
       -9.80980981        1.25334587        0.14634403        0.19550491        0.89322071        0.01610581        0.00217042
       -9.79979980        1.23995897        0.14664353        0.19611819        0.87874595        0.01626740        0.00218390
       -9.78978979        1.22445269        0.14661782        0.19620259        0.86304548        0.01639311        0.00219368
       -9.77977978        1.20706980        0.14630957        0.19577695        0.84630167        0.01648171        0.00219991
       -9.76976977        1.18805761        0.14575936        0.19486404        0.82869904        0.01653238        0.00220279
       -9.75975976        1.16766321        0.14500368        0.19348966        0.81042254        0.01654479        0.00220253
       -9.74974975        1.14612941        0.14407327        0.19168181        0.79165581        0.01651911        0.00219941
       -9.73973974        1.12369132        0.14299191        0.18946999        0.77257970        0.01645601        0.00219372
       -9.72972973        1.10057384        0.14177578        0.18688471        0.75337091        0.01635668        0.00218576
       -9.71971972        1.07698992        0.14043337        0.18395706        0.73420079        0.01622283        0.00217587
       -9.70970971        1.05313959        0.13896588        0.18071855        0.71523415        0.01605664        0.00216438
       -9.69969970        1.02920954        0.13736816        0.17720096        0.69662806        0.01586073        0.00215164
       -9.68968969        1.00537308        0.13563001        0.17343637        0.67853061        0.01563812        0.00213798
       -9.67967968        0.98179024        0.13373783        0.16945711        0.66107943        0.01539217        0.00212371
       -9.66966967        0.95860785        0.13167629        0.16529577        0.64440017        0.01512649        0.00210912
       -9.65965966        0.93595942        0.12943025        0.16098512        0.62860469        0.01484487        0.00209450
       -9.64964965        0.91396478        0.12698639        0.15655788        0.61378927        0.01455118        0.00208005
       -9.63963964        0.89272944        0.12433480        0.15204651        0.60003284        0.01424930        0.00206599
       -9.62962963        0.87234382        0.12147019        0.14748281        0.58739540        0.01394298        0.00205244
       -9.61961962        0.85288251        0.11839280        0.14289745        0.57591692        0.01363582        0.00203953
       -9.60960961        0.83440368        0.11510894        0.13831960        0.56561673        0.01333111        0.00202731
       -9.59959960        0.81694899        0.11163111        0.13377642        0.55649382        0.01303183        0.00201580
       -9.58958959        0.80054412        0.10797781        0.12929278        0.54852795        0.01274058        0.00200501
       -9.57957958        0.78520015        0.10417290        0.12489098        0.54168182        0.01245953        0.00199491
       -9.56956957        0.77091572        0.10024487        0.12059079        0.53590415        0.01219045        0.00198547
       -9.55955956        0.75768018        0.09622567        0.11640953        0.53113362        0.01193468        0.00197667
       -9.54954955        0.74547740        0.09214963        0.11236246        0.52730358        0.01169323        0.00196851
       -9.53953954        0.73429013        0.08805214        0.10846324        0.52434699        0.01146677        0.00196099
       -9.52952953        0.72410461        0.08396838        0.10472463        0.52220165        0.01125574        0.00195421
       -9.51951952        0.71491515        0.07993220        0.10115924        0.52081501        0.01106043        0.00194826
       -9.50950951        0.70672818        0.07597498        0.09778023        0.52014859        0.01088103        0.00194335
       -9.49949950        0.69956558        0.07212477        0.09460205        0.52018132        0.01071773        0.00193970
       -9.48948949        0.69346705        0.06840560        0.09164102        0.52091200        0.01057080        0.00193763
       -9.47947948        0.68849107        0.06483697        0.08891569        0.52236029        0.01044063        0.00193749
       -9.46946947        0.68471470        0.06143363        0.08644704        0.52456655        0.01032779        0.00193969
       -9.45945946        0.68223191        0.05820561        0.08425832        0.52759029        0.01023304        0.00194465
       -9.44944945        0.68115069        0.05515836        0.08237466        0.53150746        0.01015735        0.00195285
       -9.43943944        0.68158911        0.05229321        0.08082237        0.53640690        0.01010189        0.00196474
       -9.42942943        0.68367053        0.04960794        0.07962797        0.54238591        0.01006795        0.00198077
       -9.41941942        0.68751828        0.04709740        0.07881706        0.54954552        0.01005697        0.00200134
       -9.40940941        0.69325010        0.04475434        0.07841293        0.55798563        0.01007038        0.00202682
       -9.39939940        0.70097263        0.04257013        0.07843518        0.56780019        0.01010961        0.00205752
       -9.38938939        0.71077625        0.04053555        0.07889822        0.57907288        0.01017592        0.00209368
       -9.37937938        0.72273041        0.03864145        0.07980990        0.59187323        0.01027038        0.00213544
       -9.36936937        0.73687965        0.03687935        0.08117026        0.60625343        0.01039373        0.00218288
       -9.35935936        0.75324034        0.03524186        0.08297042        0.62224580        0.01054628        0.00223597
       -9.34934935        0.77179819        0.03372297        0.08519187        0.63986088        0.01072788        0.00229459
       -9.33933934        0.79250650        0.03231817        0.08780591        0.65908608        0.01093781        0.00235854
       -9.32932933        0.81528498        0.03102441        0.09077363        0.67988475        0.01117470        0.00242750
       -9.31931932        0.84001914        0.02983990        0.09404610        0.70219550        0.01143653        0.00250110
       -9.30930931        0.86656004        0.02876383        0.09756513        0.72593162        0.01172062        0.00257883
       -9.29929930        0.89472436        0.02779591        0.10126428        0.75098045        0.01202359        0.00266014
       -9.28928929        0.92429474        0.02693592        0.10507028        0.77720277        0.01234143        0.00274435
       -9.27927928        0.95502028        0.02618325        0.10890483        0.80443193        0.01266953        0.00283074
       -9.26926927        0.98661733        0.02553638        0.11268661        0.83247306        0.01300281        0.00291848
       -9.25925926        1.01877076        0.02499250        0.11633350        0.86110231        0.01333577        0.00300667
       -9.24924925        1.05113559        0.02454716        0.11976498        0.89006641        0.01366268        0.00309437
       -9.23923924        1.08333959        0.02419404        0.12290449        0.91908285        0.01397766        0.00318055
       -9.22922923        1.11498667        0.02392485        0.12568185        0.94784092        0.01427489        0.00326416
       -9.21921922        1.14566167        0.02372939        0.12803541        0.97600401        0.01454873        0.00334413
       -9.20920921        1.17493646        0.02359570        0.12991409        1.00321337        0.01479393        0.00341936
       -9.19919920        1.20237762        0.02351037        0.13127902        1.02909372        0.01500571        0.00348880
       -9.18918919        1.22755571        0.02345892        0.13210485        1.05326055        0.01517996        0.00355142
       -9.17917918        1.25005599        0.02342634        0.13238055        1.07532948        0.01531334        0.00360628
       -9.16916917        1.26949040        0.02339760        0.13210983        1.09492710        0.01540334        0.00365253
       -9.15915916        1.28551033        0.02335826        0.13131093        1.11170326        0.01544843        0.00368946
       -9.14914915        1.29781973        0.02329500        0.13001601        1.12534418        0.01544803        0.00371652
       -9.13913914        1.30618780        0.02319616        0.12826996        1.13558578        0.01540256        0.00373334
       -9.12912913        1.31046062        0.02305222        0.12612888        1.14222634        0.01531341        0.00373977
       -9.11911912        1.31057089        0.02285609        0.12365805        1.14513794        0.01518294        0.00373588
       -9.10910911        1.30654497        0.02260337        0.12092968        1.14427562        0.01501434        0.00372196
       -9.09909910        1.29850670        0.02229243        0.11802042        1.13968368        0.01481163        0.00369855
       -9.08908909        1.28667737        0.02192436        0.11500871        1.13149841        0.01457946        0.00366642
       -9.07907908        1.27137157        0.02150277        0.11197221        1.11994695        0.01432309        0.00362656
       -9.06906907        1.25298885        0.02103348        0.10898520        1.10534190        0.01404814        0.00358013
       -9.05905906        1.23200136        0.02052413        0.10611624        1.08807197        0.01376054        0.00352849
       -9.04904905        1.20893798        0.01998363        0.10342611        1.06858881        0.01346632        0.00347310
       -9.03903904        1.18436556        0.01942169        0.10096607        1.04739081        0.01317150        0.00341550
       -9.02902903        1.15886834        0.01884821        0.09877658        1.02500440        0.01288188        0.00335727
       -9.01901902        1.13302634        0.01827279        0.09688642        1.00196416        0.01260298        0.00329999
       -9.00900901        1.10739414        0.01770427        0.09531236        0.97879255        0.01233981        0.00324513
       -8.99899900        1.08248097        0.01715031        0.09405932        0.95598041        0.01209686        0.00319408
       -8.98898899        1.05873327        0.01661709        0.09312087        0.93396936        0.01187789        0.00314806
       -8.97897898        1.03652046        0.01610919        0.09248035        0.91313694        0.01168591        0.00310807
       -8.96896897        1.01612482        0.01562947        0.09211214        0.89378520        0.01152313        0.00307488
       -8.95895896        0.99773570        0.01517916        0.09198340        0.87613325        0.01139088        0.00304900
       -8.94894895        0.98144827        0.01475799        0.09205582        0.86031415        0.01128964        0.00303067
       -8.93893894        0.96726676        0.01436441        0.09228764        0.84637586        0.01121903        0.00301982
       -8.92892893        0.95511171        0.01399591        0.09263556        0.83428625        0.01117786        0.00301613
       -8.91891892        0.94483070        0.01364934        0.09305661        0.82394154        0.01116422        0.00301900
       -8.90890891        0.93621178        0.01332119        0.09350981        0.81517764        0.01117552        0.00302763
       -8.89889890        0.92899880        0.01300799        0.09395769        0.80778352        0.01120862        0.00304098
       -8.88888889        0.92290767        0.01270651        0.09436741        0.80151590        0.01125995        0.00305790
       -8.87887888        0.91764277        0.01241406        0.09471164        0.79611432        0.01132564        0.00307711
       -8.86886887        0.91291261        0.01212860        0.09496912        0.79131594        0.01140166        0.00309729
       -8.85885886        0.90844410        0.01184890        0.09512484        0.78686930        0.01148393        0.00311714
       -8.84884885        0.90399480        0.01157453        0.09516996        0.78254640        0.01156850        0.00313541
       -8.83883884        0.89936287        0.01130590        0.09510153        0.77815281        0.01165166        0.00315097
       -8.82882883        0.89439422        0.01104412        0.09492185        0.77353532        0.01173006        0.00316287
       -8.81881882        0.88898700        0.01079096        0.09463780        0.76858707        0.01180081        0.00317035
       -8.80880881        0.88309319        0.01054864        0.09426000        0.76325008        0.01186158        0.00317288
       -8.79879880        0.87671767        0.01031973        0.09380187        0.75751521        0.01191066        0.00317021
       -8.78878879        0.86991475        0.01010691        0.09327868        0.75141986        0.01194697        0.00316233
       -8.77877878        0.86278260        0.00991288        0.09270666        0.74504345        0.01197012        0.00314950
       -8.76876877        0.85545595        0.00974011        0.09210207        0.73850122        0.01198034        0.00313221
       -8.75875876        0.84809735        0.00959073        0.09148040        0.73193656        0.01197848        0.00311118
       -8.74874875        0.84088753        0.00946642        0.09085560        0.72551231        0.01196591        0.00308728
       -8.73873874        0.83401526        0.00936822        0.09023948        0.71940158        0.01194443        0.00306154
       -8.72872873        0.82766714        0.00929649        0.08964115        0.71377828        0.01191619        0.00303504
       -8.71871872        0.82201778        0.00925082        0.08906665        0.70880793        0.01188352        0.00300887
       -8.70870871        0.81722077        0.00923000        0.08851869        0.70463913        0.01184885        0.00298410
       -8.69869870        0.81340071        0.00923200        0.08799651        0.70139594        0.01181456        0.00296170
       -8.68868869        0.81064681        0.00925399        0.08749594        0.69917153        0.01178285        0.00294250
       -8.67867868        0.80900801        0.00929240        0.08700955        0.69802323        0.01175568        0.00292715
       -8.66866867        0.80848996        0.00934301        0.08652695        0.69796929        0.01173464        0.00291608
       -8.65865866        0.80905385        0.00940106        0.08603527        0.69898713        0.01172089        0.00290950
       -8.64864865        0.81061708        0.00946142        0.08551967        0.70101345        0.01171517        0.00290737
       -8.63863864        0.81305563        0.00951875        0.08496405        0.70394571        0.01171773        0.00290939
       -8.62862863        0.81620801        0.00956769        0.08435171        0.70764518        0.01172835        0.00291508
       -8.61861862        0.81988052        0.00960306        0.08366612        0.71194121        0.01174642        0.00292371
       -8.60860861        0.82385364        0.00962008        0.08289168        0.71663655        0.01177092        0.00293441
       -8.59859860        0.82788917        0.00961453        0.08201444        0.72151349        0.01180054        0.00294617
       -8.58858859        0.83173796        0.00958291        0.08102280        0.72634066        0.01183372        0.00295787
       -8.57857858        0.83514793        0.00952261        0.07990801        0.73088018        0.01186875        0.00296839
       -8.56856857        0.83787216        0.00943196        0.07866471        0.73489509        0.01190381        0.00297657
       -8.55855856        0.83967684        0.00931031        0.07729126        0.73815683        0.01193712        0.00298133
       -8.54854855        0.84034898        0.00915800        0.07578988        0.74045254        0.01196690        0.00298167
       -8.53853854        0.83970356        0.00897636        0.07416678        0.74159214        0.01199155        0.00297673
       -8.52852853        0.83759014        0.00876759        0.07243207        0.74141505        0.01200961        0.00296581
       -8.51851852        0.83389873        0.00853466        0.07059953        0.73979626        0.01201988        0.00294840
       -8.50850851        0.82856475        0.00828118        0.06868628        0.73665166        0.01202141        0.00292422
       -8.49849850        0.82157285        0.00801121        0.06671241        0.73194247        0.01201356        0.00289320
       -8.48848849        0.81295964        0.00772915        0.06470044        0.72567853        0.01199603        0.00285550
       -8.47847848        0.80281488        0.00743951        0.06267475        0.71792025        0.01196886        0.00281151
       -8.46846847        0.79128117        0.00714682        0.06066101        0.70877902        0.01193248        0.00276185
