#  aims_uuid : F128D8B5-E5F3-407F-ADF6-DC6AC86BB935                                
#  angular momentum projected density of states for species Mo as calculated by FHI-aims 
# The energy reference for this output is the vacuum level =       0.000000 eV
#      Energy (eV)         total dos     l= 0              l= 1              l= 2              l= 3              l= 4
      -10.00000000        1.02550102        0.04706676        0.15163704        0.81408733        0.01099037        0.00171952
       -9.98998999        1.07251058        0.05294143        0.16119776        0.84498268        0.01157235        0.00181635
       -9.97997998        1.11821760        0.05922522        0.17085121        0.87405790        0.01217159        0.00191168
       -9.96996997        1.16225751        0.06588797        0.18051005        0.90107095        0.01278365        0.00200489
       -9.95995996        1.20428335        0.07288787        0.19007913        0.92581721        0.01340375        0.00209540
       -9.94994995        1.24396673        0.08017127        0.19945621        0.94812984        0.01402684        0.00218258
       -9.93993994        1.28099813        0.08767289        0.20853302        0.96787876        0.01464766        0.00226581
       -9.92992993        1.31508694        0.09531655        0.21719669        0.98496846        0.01526076        0.00234448
       -9.91991992        1.34596172        0.10301644        0.22533166        0.99933506        0.01586062        0.00241794
       -9.90990991        1.37337112        0.11067879        0.23282192        1.01094321        0.01644162        0.00248557
       -9.89989990        1.39708574        0.11820413        0.23955373        1.01978288        0.01699824        0.00254676
       -9.88988989        1.41690106        0.12548980        0.24541869        1.02586663        0.01752502        0.00260092
       -9.87987988        1.43264145        0.13243286        0.25031697        1.02922738        0.01801675        0.00264749
       -9.86986987        1.44416499        0.13893302        0.25416070        1.02991676        0.01846852        0.00268599
       -9.85985986        1.45136873        0.14489568        0.25687718        1.02800403        0.01887583        0.00271601
       -9.84984985        1.45419400        0.15023473        0.25841189        1.02357545        0.01923471        0.00273722
       -9.83983984        1.45263110        0.15487515        0.25873096        1.01673381        0.01954176        0.00274941
       -9.82982983        1.44672297        0.15875513        0.25782299        1.00759806        0.01979429        0.00275249
       -9.81981982        1.43656725        0.16182773        0.25570011        0.99630259        0.01999034        0.00274648
       -9.80980981        1.42231656        0.16406191        0.25239813        0.98299624        0.02012873        0.00273155
       -9.79979980        1.40417658        0.16544303        0.24797578        0.96784073        0.02020907        0.00270797
       -9.78978979        1.38240219        0.16597262        0.24251306        0.95100857        0.02023178        0.00267615
       -9.77977978        1.35729166        0.16566774        0.23610873        0.93268053        0.02019806        0.00263660
       -9.76976977        1.32917923        0.16455969        0.22887712        0.91304267        0.02010982        0.00258993
       -9.75975976        1.29842665        0.16269244        0.22094451        0.89228324        0.01996964        0.00253682
       -9.74974975        1.26541405        0.16012068        0.21244502        0.87058961        0.01978073        0.00247802
       -9.73973974        1.23053080        0.15690774        0.20351656        0.84814540        0.01954680        0.00241430
       -9.72972973        1.19416672        0.15312342        0.19429675        0.82512803        0.01927203        0.00234648
       -9.71971972        1.15670423        0.14884182        0.18491921        0.80170688        0.01896094        0.00227538
       -9.70970971        1.11851164        0.14413934        0.17551013        0.77804202        0.01861833        0.00220181
       -9.69969970        1.07993782        0.13909281        0.16618559        0.75428366        0.01824921        0.00212656
       -9.68968969        1.04130837        0.13377783        0.15704927        0.73057221        0.01785866        0.00205039
       -9.67967968        1.00292315        0.12826746        0.14819098        0.70703885        0.01745182        0.00197404
       -9.66966967        0.96505523        0.12263104        0.13968571        0.68380658        0.01703371        0.00189819
       -9.65965966        0.92795086        0.11693332        0.13159335        0.66099146        0.01660924        0.00182348
       -9.64964965        0.89183040        0.11123388        0.12395891        0.63870405        0.01618307        0.00175049
       -9.63963964        0.85689001        0.10558663        0.11681320        0.61705085        0.01575955        0.00167978
       -9.62962963        0.82330374        0.10003959        0.11017394        0.59613573        0.01534266        0.00161182
       -9.61961962        0.79122604        0.09463476        0.10404713        0.57606114        0.01493594        0.00154707
       -9.60960961        0.76079438        0.08940812        0.09842859        0.55692926        0.01454250        0.00148592
       -9.59959960        0.73213208        0.08438970        0.09330575        0.53884297        0.01416494        0.00142873
       -9.58958959        0.70535103        0.07960374        0.08865943        0.52190663        0.01380541        0.00137583
       -9.57957958        0.68055446        0.07506882        0.08446568        0.50622682        0.01346564        0.00132751
       -9.56956957        0.65783955        0.07079809        0.08069760        0.49191288        0.01314693        0.00128405
       -9.55955956        0.63729990        0.06679952        0.07732702        0.47907734        0.01285030        0.00124573
       -9.54954955        0.61902777        0.06307605        0.07432614        0.46783625        0.01257651        0.00121282
       -9.53953954        0.60311601        0.05962597        0.07166901        0.45830923        0.01232619        0.00118562
       -9.52952953        0.58965964        0.05644315        0.06933273        0.45061941        0.01209990        0.00116445
       -9.51951952        0.57875691        0.05351743        0.06729858        0.44489301        0.01189822        0.00114968
       -9.50950951        0.57050998        0.05083499        0.06555279        0.44125866        0.01172183        0.00114171
       -9.49949950        0.56502491        0.04837887        0.06408713        0.43984633        0.01157156        0.00114102
       -9.48948949        0.56241114        0.04612952        0.06289916        0.44078591        0.01144839        0.00114815
       -9.47947948        0.56278044        0.04406543        0.06199229        0.44420552        0.01135348        0.00116372
       -9.46946947        0.56624520        0.04216381        0.06137552        0.45022934        0.01128813        0.00118839
       -9.45945946        0.57291629        0.04040141        0.06106294        0.45897526        0.01125375        0.00122292
       -9.44944945        0.58290039        0.03875525        0.06107303        0.47055220        0.01125180        0.00126811
       -9.43943944        0.59629689        0.03720345        0.06142772        0.48505723        0.01128368        0.00132481
       -9.42942943        0.61319429        0.03572594        0.06215126        0.50257249        0.01135071        0.00139390
       -9.41941942        0.63366633        0.03430518        0.06326905        0.52316189        0.01145396        0.00147625
       -9.40940941        0.65776752        0.03292667        0.06480624        0.54686765        0.01159424        0.00157272
       -9.39939940        0.68552845        0.03157938        0.06678631        0.57370670        0.01177195        0.00168412
       -9.38938939        0.71695061        0.03025595        0.06922963        0.60366684        0.01198706        0.00181113
       -9.37937938        0.75200091        0.02895274        0.07215200        0.63670284        0.01223900        0.00195433
       -9.36936937        0.79060599        0.02766963        0.07556319        0.67273245        0.01252662        0.00211411
       -9.35935936        0.83264645        0.02640971        0.07946557        0.71163239        0.01284815        0.00229063
       -9.34934935        0.87795120        0.02517876        0.08385293        0.75323458        0.01320113        0.00248379
       -9.33933934        0.92629227        0.02398460        0.08870930        0.79732274        0.01358244        0.00269319
       -9.32932933        0.97738048        0.02283635        0.09400818        0.84362963        0.01398824        0.00291808
       -9.31931932        1.03086214        0.02174374        0.09971185        0.89183518        0.01441403        0.00315734
       -9.30930931        1.08631753        0.02071630        0.10577120        0.94156597        0.01485461        0.00340946
       -9.29929930        1.14326125        0.01976271        0.11212572        0.99239610        0.01530420        0.00367251
       -9.28928929        1.20114495        0.01889020        0.11870411        1.04384997        0.01575647        0.00394421
       -9.27927928        1.25936270        0.01810409        0.12542512        1.09540699        0.01620465        0.00422185
       -9.26926927        1.31725896        0.01740745        0.13219902        1.14650843        0.01664165        0.00450241
       -9.25925926        1.37413940        0.01680091        0.13892936        1.19656633        0.01706023        0.00478257
       -9.24924925        1.42928409        0.01628271        0.14551513        1.24497433        0.01745316        0.00505877
       -9.23923924        1.48196300        0.01584869        0.15185327        1.29112033        0.01781341        0.00532731
       -9.22922923        1.53145304        0.01549259        0.15784136        1.33440029        0.01813436        0.00558444
       -9.21921922        1.57705620        0.01520636        0.16338042        1.37423300        0.01841000        0.00582642
       -9.20920921        1.61811799        0.01498049        0.16837771        1.41007500        0.01863512        0.00604967
       -9.19919920        1.65404535        0.01480442        0.17274934        1.44143525        0.01880549        0.00625085
       -9.18918919        1.68432332        0.01466703        0.17642262        1.46788871        0.01891801        0.00642695
       -9.17917918        1.70852968        0.01455697        0.17933809        1.48908838        0.01897082        0.00657542
       -9.16916917        1.72634690        0.01446309        0.18145101        1.50477524        0.01896337        0.00669419
       -9.15915916        1.73757089        0.01437481        0.18273234        1.51478551        0.01889646        0.00678178
       -9.14914915        1.74211613        0.01428237        0.18316915        1.51905510        0.01877217        0.00683734
       -9.13913914        1.74001700        0.01417716        0.18276452        1.51762083        0.01859384        0.00686064
       -9.12912913        1.73142533        0.01405187        0.18153687        1.51061856        0.01836592        0.00685211
       -9.11911912        1.71660420        0.01390066        0.17951883        1.49827811        0.01809382        0.00681278
       -9.10910911        1.69591843        0.01371930        0.17675574        1.48091537        0.01778376        0.00674427
       -9.09909910        1.66982209        0.01350516        0.17330389        1.45892185        0.01744249        0.00664870
       -9.08908909        1.63884373        0.01325728        0.16922851        1.43275214        0.01707715        0.00652864
       -9.07907908        1.60356978        0.01297630        0.16460174        1.40290975        0.01669500        0.00638700
       -9.06906907        1.56462701        0.01266434        0.15950054        1.36993203        0.01630319        0.00622691
       -9.05905906        1.52266461        0.01232492        0.15400472        1.33437471        0.01590859        0.00605167
       -9.04904905        1.47833659        0.01196274        0.14819508        1.29679658        0.01551760        0.00586461
       -9.03903904        1.43228522        0.01158343        0.14215177        1.25774510        0.01513593        0.00566899
       -9.02902903        1.38512598        0.01119339        0.13595281        1.21774332        0.01476852        0.00546793
       -9.01901902        1.33743457        0.01079942        0.12967287        1.17727851        0.01441944        0.00526433
       -9.00900901        1.28973634        0.01040847        0.12338223        1.13679305        0.01409178        0.00506081
       -8.99899900        1.24249835        0.01002736        0.11714600        1.09667770        0.01378766        0.00485963
       -8.98898899        1.19612437        0.00966251        0.11102354        1.05726740        0.01350821        0.00466271
       -8.97897898        1.15095255        0.00931968        0.10506803        1.01883960        0.01325365        0.00447159
       -8.96896897        1.10725590        0.00900377        0.09932625        0.98161510        0.01302333        0.00428745
       -8.95895896        1.06524527        0.00871868        0.09383849        0.94576111        0.01281589        0.00411110
       -8.94894895        1.02507436        0.00846721        0.08863864        0.91139612        0.01262936        0.00394303
       -8.93893894        0.98684656        0.00825099        0.08375437        0.87859641        0.01246132        0.00378347
       -8.92892893        0.95062293        0.00807054        0.07920742        0.84740347        0.01230912        0.00363238
       -8.91891892        0.91643087        0.00792530        0.07501400        0.81783199        0.01217000        0.00348958
       -8.90890891        0.88427288        0.00781376        0.07118522        0.78987790        0.01204128        0.00335472
       -8.89889890        0.85413504        0.00773360        0.06772760        0.76352588        0.01192055        0.00322740
       -8.88888889        0.82599446        0.00768184        0.06464355        0.73875612        0.01180577        0.00310718
       -8.87887888        0.79982561        0.00765504        0.06193189        0.71554969        0.01169538        0.00299362
       -8.86886887        0.77560504        0.00764941        0.05958832        0.69389258        0.01158840        0.00288632
       -8.85885886        0.75331436        0.00766106        0.05760579        0.67377811        0.01148444        0.00278495
       -8.84884885        0.73294158        0.00768604        0.05597491        0.65520767        0.01138371        0.00268925
       -8.83883884        0.71448064        0.00772050        0.05468414        0.63819004        0.01128693        0.00259903
       -8.82882883        0.69792960        0.00776078        0.05372003        0.62273926        0.01119534        0.00251419
       -8.81881882        0.68328754        0.00780342        0.05306729        0.60887165        0.01111051        0.00243468
       -8.80880881        0.67055069        0.00784524        0.05270882        0.59660189        0.01103422        0.00236051
       -8.79879880        0.65970815        0.00788334        0.05262571        0.58593901        0.01096837        0.00229172
       -8.78878879        0.65073759        0.00791510        0.05279719        0.57688219        0.01091476        0.00222835
       -8.77877878        0.64360123        0.00793815        0.05320054        0.56941713        0.01087496        0.00217045
       -8.76876877        0.63824271        0.00795041        0.05381108        0.56351298        0.01085021        0.00211804
       -8.75875876        0.63458474        0.00795003        0.05460216        0.55912021        0.01084125        0.00207109
       -8.74874875        0.63252808        0.00793544        0.05554520        0.55616963        0.01084826        0.00202954
       -8.73873874        0.63195169        0.00790531        0.05660989        0.55457244        0.01087077        0.00199328
       -8.72872873        0.63271418        0.00785856        0.05776436        0.55422149        0.01090765        0.00196212
       -8.71871872        0.63465650        0.00779442        0.05897553        0.55499360        0.01095710        0.00193585
       -8.70870871        0.63760553        0.00771238        0.06020951        0.55675275        0.01101669        0.00191420
       -8.69869870        0.64137867        0.00761226        0.06143216        0.55935394        0.01108344        0.00189687
       -8.68868869        0.64578874        0.00749418        0.06260956        0.56264757        0.01115393        0.00188351
       -8.67867868        0.65064937        0.00735859        0.06370871        0.56648390        0.01122439        0.00187378
       -8.66866867        0.65578010        0.00720623        0.06469815        0.57071749        0.01129090        0.00186733
       -8.65865866        0.66101133        0.00703817        0.06554858        0.57521125        0.01134953        0.00186380
       -8.64864865        0.66618848        0.00685571        0.06623352        0.57983989        0.01139651        0.00186285
       -8.63863864        0.67117543        0.00666041        0.06672984        0.58449263        0.01142838        0.00186417
       -8.62862863        0.67585692        0.00645400        0.06701832        0.58907497        0.01144219        0.00186743
       -8.61861862        0.68013982        0.00623836        0.06708400        0.59350950        0.01143558        0.00187238
       -8.60860861        0.68395335        0.00601544        0.06691652        0.59773570        0.01140693        0.00187875
       -8.59859860        0.68724813        0.00578723        0.06651033        0.60170885        0.01135539        0.00188632
       -8.58858859        0.68999437        0.00555570        0.06586476        0.60539806        0.01128097        0.00189487
       -8.57857858        0.69217927        0.00532273        0.06498401        0.60878384        0.01118449        0.00190420
       -8.56856857        0.69380389        0.00509012        0.06387698        0.61185511        0.01106755        0.00191413
       -8.55855856        0.69487980        0.00485952        0.06255711        0.61460624        0.01093245        0.00192449
       -8.54854855        0.69542576        0.00463241        0.06104201        0.61703414        0.01078210        0.00193509
       -8.53853854        0.69546474        0.00441013        0.05935313        0.61913584        0.01061987        0.00194578
       -8.52852853        0.69502158        0.00419380        0.05751530        0.62090663        0.01044946        0.00195638
       -8.51851852        0.69412136        0.00398440        0.05555633        0.62233915        0.01027473        0.00196673
       -8.50850851        0.69278880        0.00378276        0.05350650        0.62342326        0.01009959        0.00197669
       -8.49849850        0.69104864        0.00358956        0.05139809        0.62414705        0.00992784        0.00198609
       -8.48848849        0.68892695        0.00340539        0.04926495        0.62449869        0.00976309        0.00199483
       -8.47847848        0.68645338        0.00323075        0.04714203        0.62446911        0.00960869        0.00200281
       -8.46846847        0.68366398        0.00306610        0.04506499        0.62405528        0.00946765        0.00200996
