#  aims_uuid : F128D8B5-E5F3-407F-ADF6-DC6AC86BB935                                
#  angular momentum projected density of states for species S as calculated by FHI-aims 
# The energy reference for this output is the vacuum level =       0.000000 eV
#      Energy (eV)         total dos     l= 0              l= 1              l= 2              l= 3              l= 4
      -10.00000000        1.03984839        0.07032828        0.91188346        0.05106229        0.00595036        0.00062401
       -9.98998999        1.08538088        0.07411955        0.95074091        0.05362129        0.00624791        0.00065122
       -9.97997998        1.13010678        0.07781905        0.98895152        0.05611769        0.00653921        0.00067932
       -9.96996997        1.17360398        0.08140488        1.02613951        0.05852916        0.00682232        0.00070811
       -9.95995996        1.21547215        0.08485698        1.06194836        0.06083406        0.00709538        0.00073737
       -9.94994995        1.25534011        0.08815716        1.09604771        0.06301172        0.00735663        0.00076688
       -9.93993994        1.29287156        0.09128909        1.12813894        0.06504273        0.00760437        0.00079642
       -9.92992993        1.32776937        0.09423825        1.15795917        0.06690920        0.00783701        0.00082574
       -9.91991992        1.35977829        0.09699183        1.18528384        0.06859499        0.00805302        0.00085461
       -9.90990991        1.38868627        0.09953861        1.20992794        0.07008595        0.00825096        0.00088281
       -9.89989990        1.41432452        0.10186888        1.23174596        0.07137008        0.00842952        0.00091008
       -9.88988989        1.43656653        0.10397427        1.25063083        0.07243776        0.00858748        0.00093619
       -9.87987988        1.45532615        0.10584767        1.26651198        0.07328185        0.00872376        0.00096090
       -9.86986987        1.47055504        0.10748311        1.27935274        0.07389778        0.00883742        0.00098399
       -9.85985986        1.48223952        0.10887569        1.28914723        0.07428367        0.00892771        0.00100522
       -9.84984985        1.49039714        0.11002143        1.29591695        0.07444030        0.00899406        0.00102439
       -9.83983984        1.49507303        0.11091726        1.29970729        0.07437104        0.00903613        0.00104132
       -9.82982983        1.49633623        0.11156088        1.30058397        0.07408178        0.00905378        0.00105583
       -9.81981982        1.49427608        0.11195078        1.29862968        0.07358073        0.00904712        0.00106779
       -9.80980981        1.48899894        0.11208613        1.29394103        0.07287821        0.00901648        0.00107710
       -9.79979980        1.48062521        0.11196684        1.28662586        0.07198637        0.00896245        0.00108369
       -9.78978979        1.46928686        0.11159356        1.27680103        0.07091891        0.00888581        0.00108755
       -9.77977978        1.45512550        0.11096774        1.26459077        0.06969072        0.00878758        0.00108869
       -9.76976977        1.43829101        0.11009176        1.25012554        0.06831760        0.00866894        0.00108717
       -9.75975976        1.41894078        0.10896905        1.23354146        0.06681590        0.00853127        0.00108310
       -9.74974975        1.39723937        0.10760431        1.21498008        0.06520228        0.00837610        0.00107660
       -9.73973974        1.37335864        0.10600366        1.19458863        0.06349341        0.00820509        0.00106784
       -9.72972973        1.34747803        0.10417489        1.17252030        0.06170579        0.00802002        0.00105703
       -9.71971972        1.31978491        0.10212760        1.14893462        0.05985554        0.00782277        0.00104438
       -9.70970971        1.29047480        0.09987341        1.12399768        0.05795830        0.00761528        0.00103013
       -9.69969970        1.25975115        0.09742602        1.09788196        0.05602906        0.00739959        0.00101452
       -9.68968969        1.22782479        0.09480126        1.07076580        0.05408219        0.00717773        0.00099781
       -9.67967968        1.19491261        0.09201700        1.04283231        0.05213126        0.00695179        0.00098025
       -9.66966967        1.16123586        0.08909301        1.01426782        0.05018909        0.00672384        0.00096210
       -9.65965966        1.12701769        0.08605071        0.98525981        0.04826766        0.00649592        0.00094358
       -9.64964965        1.09248046        0.08291284        0.95599458        0.04637808        0.00627001        0.00092494
       -9.63963964        1.05784279        0.07970302        0.92665479        0.04453056        0.00604803        0.00090639
       -9.62962963        1.02331659        0.07644531        0.89741703        0.04273436        0.00583176        0.00088812
       -9.61961962        0.98910452        0.07316373        0.86844982        0.04099778        0.00562285        0.00087034
       -9.60960961        0.95539791        0.06988177        0.83991205        0.03932812        0.00542277        0.00085321
       -9.59959960        0.92237554        0.06662194        0.81195222        0.03773167        0.00523282        0.00083689
       -9.58958959        0.89020332        0.06340538        0.78470854        0.03621378        0.00505408        0.00082154
       -9.57957958        0.85903501        0.06025154        0.75830991        0.03477884        0.00488742        0.00080731
       -9.56956957        0.82901389        0.05717796        0.73287772        0.03343038        0.00473351        0.00079432
       -9.55955956        0.80027533        0.05420016        0.70852846        0.03217119        0.00459278        0.00078274
       -9.54954955        0.77294995        0.05133156        0.68537678        0.03100341        0.00446550        0.00077269
       -9.53953954        0.74716727        0.04858361        0.66353885        0.02992871        0.00435176        0.00076434
       -9.52952953        0.72305923        0.04596588        0.64313563        0.02894840        0.00425149        0.00075783
       -9.51951952        0.70076357        0.04348630        0.62429577        0.02806363        0.00416453        0.00075334
       -9.50950951        0.68042646        0.04115136        0.60715790        0.02727552        0.00409064        0.00075104
       -9.49949950        0.66220424        0.03896639        0.59187187        0.02658529        0.00402956        0.00075113
       -9.48948949        0.64626389        0.03693581        0.57859890        0.02599437        0.00398101        0.00075380
       -9.47947948        0.63278224        0.03506333        0.56751037        0.02550450        0.00394477        0.00075927
       -9.46946947        0.62194359        0.03335214        0.55878533        0.02511770        0.00392069        0.00076774
       -9.45945946        0.61393604        0.03180503        0.55260655        0.02483632        0.00390873        0.00077942
       -9.44944945        0.60894625        0.03042442        0.54915538        0.02466298        0.00390895        0.00079451
       -9.43943944        0.60715312        0.02921238        0.54860552        0.02460044        0.00392158        0.00081320
       -9.42942943        0.60872046        0.02817048        0.55111589        0.02465145        0.00394698        0.00083567
       -9.41941942        0.61378894        0.02729971        0.55682293        0.02481861        0.00398565        0.00086204
       -9.40940941        0.62246763        0.02660022        0.56583265        0.02510411        0.00403821        0.00089244
       -9.39939940        0.63482566        0.02607109        0.57821273        0.02550952        0.00410541        0.00092691
       -9.38938939        0.65088411        0.02571005        0.59398503        0.02603550        0.00418803        0.00096549
       -9.37937938        0.67060871        0.02551325        0.61311890        0.02668156        0.00428688        0.00100812
       -9.36936937        0.69390371        0.02547494        0.63552554        0.02744578        0.00440274        0.00105471
       -9.35935936        0.72060715        0.02558731        0.66105387        0.02832458        0.00453631        0.00110509
       -9.34934935        0.75048794        0.02584027        0.68948805        0.02931253        0.00468809        0.00115901
       -9.33933934        0.78324504        0.02622142        0.72054691        0.03040217        0.00485837        0.00121617
       -9.32932933        0.81850881        0.02671602        0.75388554        0.03158392        0.00504717        0.00127616
       -9.31931932        0.85584477        0.02730711        0.78909901        0.03284602        0.00525409        0.00133854
       -9.30930931        0.89475972        0.02797567        0.82572826        0.03417465        0.00547838        0.00140276
       -9.29929930        0.93471016        0.02870100        0.86326820        0.03555395        0.00571879        0.00146823
       -9.28928929        0.97511285        0.02946107        0.90117754        0.03696632        0.00597362        0.00153430
       -9.27927928        1.01535712        0.03023305        0.93889047        0.03839267        0.00624067        0.00160025
       -9.26926927        1.05481874        0.03099385        0.97582946        0.03981282        0.00651725        0.00166537
       -9.25925926        1.09287473        0.03172072        1.01141904        0.04120586        0.00680023        0.00172888
       -9.24924925        1.12891857        0.03239184        1.04509987        0.04255073        0.00708610        0.00179003
       -9.23923924        1.16237546        0.03298698        1.07634276        0.04382665        0.00737101        0.00184805
       -9.22922923        1.19271684        0.03348799        1.10466205        0.04501369        0.00765087        0.00190223
       -9.21921922        1.21947374        0.03387931        1.12962781        0.04609327        0.00792146        0.00195188
       -9.20920921        1.24224852        0.03414836        1.15087658        0.04704866        0.00817855        0.00199637
       -9.19919920        1.26072448        0.03428581        1.16812011        0.04786544        0.00841798        0.00203514
       -9.18918919        1.27467308        0.03428574        1.18115194        0.04853186        0.00863583        0.00206771
       -9.17917918        1.28395853        0.03414563        1.18985152        0.04903917        0.00882850        0.00209371
       -9.16916917        1.28853970        0.03386631        1.19418588        0.04938183        0.00899282        0.00211286
       -9.15915916        1.28846927        0.03345172        1.19420878        0.04955763        0.00912616        0.00212499
       -9.14914915        1.28389028        0.03290858        1.19005742        0.04956777        0.00922649        0.00213001
       -9.13913914        1.27503020        0.03224604        1.18194698        0.04941672        0.00929248        0.00212799
       -9.12912913        1.26219292        0.03147523        1.17016306        0.04911211        0.00932346        0.00211906
       -9.11911912        1.24574880        0.03060881        1.15505251        0.04866447        0.00931953        0.00210348
       -9.10910911        1.22612326        0.02966049        1.13701277        0.04808693        0.00928149        0.00208158
       -9.09909910        1.20378427        0.02864461        1.11648024        0.04739479        0.00921082        0.00205382
       -9.08908909        1.17922905        0.02757575        1.09391783        0.04660511        0.00910968        0.00202069
       -9.07907908        1.15297049        0.02646834        1.06980236        0.04573625        0.00898078        0.00198277
       -9.06906907        1.12552357        0.02533641        1.04461184        0.04480729        0.00882733        0.00194070
       -9.05905906        1.09739228        0.02419333        1.01881321        0.04383762        0.00865297        0.00189514
       -9.04904905        1.06905725        0.02305165        0.99285083        0.04284635        0.00846159        0.00184681
       -9.03903904        1.04096451        0.02192296        0.96713597        0.04185186        0.00825730        0.00179642
       -9.02902903        1.01351576        0.02081778        0.94203772        0.04087135        0.00804424        0.00174467
       -9.01901902        0.98706024        0.01974557        0.91787547        0.03992043        0.00782651        0.00169226
       -9.00900901        0.96188863        0.01871461        0.89491329        0.03901279        0.00760806        0.00163986
       -8.99899900        0.93822894        0.01773208        0.87335627        0.03815995        0.00739256        0.00158809
       -8.98898899        0.91624473        0.01680396        0.85334891        0.03737105        0.00718331        0.00153750
       -8.97897898        0.89603537        0.01593510        0.83497572        0.03665278        0.00698319        0.00148858
       -8.96896897        0.87763861        0.01512919        0.81826370        0.03600936        0.00679460        0.00144176
       -8.95895896        0.86103499        0.01438878        0.80318685        0.03544260        0.00661939        0.00139737
       -8.94894895        0.84615411        0.01371530        0.78967216        0.03495213        0.00645887        0.00135565
       -8.93893894        0.83288223        0.01310909        0.77760701        0.03453553        0.00631382        0.00131678
       -8.92892893        0.82107098        0.01256944        0.76684751        0.03418869        0.00618450        0.00128085
       -8.91891892        0.81054672        0.01209467        0.75722738        0.03390614        0.00607068        0.00124785
       -8.90890891        0.80112008        0.01168221        0.74856703        0.03368138        0.00597172        0.00121774
       -8.89889890        0.79259541        0.01132869        0.74068240        0.03350725        0.00588666        0.00119041
       -8.88888889        0.78477956        0.01103007        0.73339318        0.03337634        0.00581425        0.00116571
       -8.87887888        0.77748985        0.01078181        0.72653024        0.03328130        0.00575307        0.00114344
       -8.86886887        0.77056094        0.01057895        0.71994187        0.03321513        0.00570159        0.00112340
       -8.85885886        0.76385028        0.01041633        0.71349879        0.03317148        0.00565829        0.00110539
       -8.84884885        0.75724222        0.01028873        0.70709778        0.03314484        0.00562169        0.00108918
       -8.83883884        0.75065066        0.01019097        0.70066396        0.03313068        0.00559046        0.00107460
       -8.82882883        0.74402018        0.01011811        0.69415164        0.03312556        0.00556341        0.00106146
       -8.81881882        0.73732580        0.01006555        0.68754391        0.03312712        0.00553961        0.00104963
       -8.80880881        0.73057150        0.01002909        0.68085101        0.03313409        0.00551833        0.00103898
       -8.79879880        0.72378739        0.01000503        0.67410760        0.03314621        0.00549910        0.00102945
       -8.78878879        0.71702598        0.00999023        0.66736902        0.03316407        0.00548169        0.00102098
       -8.77877878        0.71035741        0.00998206        0.66070673        0.03318896        0.00546610        0.00101357
       -8.76876877        0.70386394        0.00997845        0.65420306        0.03322269        0.00545251        0.00100722
       -8.75875876        0.69763386        0.00997785        0.64794540        0.03326736        0.00544126        0.00100198
       -8.74874875        0.69175507        0.00997911        0.64202015        0.03332511        0.00543279        0.00099791
       -8.73873874        0.68630849        0.00998148        0.63650644        0.03339790        0.00542761        0.00099506
       -8.72872873        0.68136166        0.00998449        0.63147021        0.03348724        0.00542622        0.00099350
       -8.71871872        0.67696287        0.00998785        0.62695860        0.03359403        0.00542909        0.00099331
       -8.70870871        0.67313604        0.00999139        0.62299525        0.03371828        0.00543660        0.00099452
       -8.69869870        0.66987680        0.00999493        0.61957666        0.03385902        0.00544899        0.00099719
       -8.68868869        0.66714999        0.00999827        0.61666992        0.03401416        0.00546634        0.00100130
       -8.67867868        0.66488894        0.01000104        0.61421209        0.03418040        0.00548855        0.00100685
       -8.66866867        0.66299644        0.01000275        0.61211135        0.03435326        0.00551531        0.00101378
       -8.65865866        0.66134786        0.01000269        0.61024993        0.03452713        0.00554610        0.00102200
       -8.64864865        0.65979586        0.00999999        0.60848888        0.03469539        0.00558022        0.00103138
       -8.63863864        0.65817697        0.00999360        0.60667424        0.03485060        0.00561678        0.00104176
       -8.62862863        0.65631929        0.00998235        0.60464457        0.03498470        0.00565473        0.00105293
       -8.61861862        0.65405115        0.00996500        0.60223923        0.03508937        0.00569289        0.00106467
       -8.60860861        0.65121014        0.00994027        0.59930689        0.03515626        0.00573001        0.00107670
       -8.59859860        0.64765181        0.00990698        0.59571394        0.03517735        0.00576479        0.00108876
       -8.58858859        0.64325774        0.00986407        0.59135196        0.03514526        0.00579590        0.00110054
       -8.57857858        0.63794221        0.00981068        0.58614409        0.03505360        0.00582209        0.00111174
       -8.56856857        0.63165722        0.00974621        0.58004957        0.03489722        0.00584217        0.00112206
       -8.55855856        0.62439555        0.00967036        0.57306648        0.03467244        0.00585508        0.00113119
       -8.54854855        0.61619157        0.00958319        0.56523228        0.03437731        0.00585991        0.00113888
       -8.53853854        0.60711999        0.00948511        0.55662236        0.03401169        0.00585598        0.00114486
       -8.52852853        0.59729258        0.00937686        0.54734664        0.03357734        0.00584281        0.00114892
       -8.51851852        0.58685316        0.00925957        0.53754451        0.03307801        0.00582017        0.00115090
       -8.50850851        0.57597130        0.00913463        0.52737854        0.03251932        0.00578812        0.00115069
       -8.49849850        0.56483513        0.00900374        0.51702742        0.03190875        0.00574701        0.00114822
       -8.48848849        0.55364375        0.00886883        0.50667851        0.03125544        0.00569747        0.00114351
       -8.47847848        0.54259967        0.00873202        0.49652051        0.03057008        0.00564043        0.00113664
       -8.46846847        0.53190181        0.00859558        0.48673674        0.02986462        0.00557713        0.00112774
