#  aims_uuid : F128D8B5-E5F3-407F-ADF6-DC6AC86BB935                                
#  angular momentum projected density of states for species S as calculated by FHI-aims 
# The energy reference for this output is the vacuum level =       0.000000 eV
#      Energy (eV)         total dos     l= 0              l= 1              l= 2              l= 3              l= 4
      -10.00000000        0.93129561        0.07015002        0.80228533        0.05216280        0.00609300        0.00060446
       -9.98998999        0.97566739        0.07341011        0.84021504        0.05501548        0.00639176        0.00063499
       -9.97997998        1.01983454        0.07662114        0.87806342        0.05779930        0.00668362        0.00066706
       -9.96996997        1.06341482        0.07975952        0.91549634        0.06049195        0.00696656        0.00070045
       -9.95995996        1.10602468        0.08280233        0.95217697        0.06307183        0.00723865        0.00073490
       -9.94994995        1.14728426        0.08572751        0.98777043        0.06551811        0.00749806        0.00077016
       -9.93993994        1.18682214        0.08851407        1.02194809        0.06781102        0.00774303        0.00080594
       -9.92992993        1.22427957        0.09114227        1.05439153        0.06993189        0.00797192        0.00084196
       -9.91991992        1.25931462        0.09359370        1.08479640        0.07186342        0.00818320        0.00087789
       -9.90990991        1.29160624        0.09585138        1.11287615        0.07358983        0.00837545        0.00091343
       -9.89989990        1.32085833        0.09789988        1.13836575        0.07509705        0.00854740        0.00094824
       -9.88988989        1.34680378        0.09972539        1.16102551        0.07637297        0.00869790        0.00098201
       -9.87987988        1.36920866        0.10131575        1.18064483        0.07740769        0.00882600        0.00101440
       -9.86986987        1.38787621        0.10266060        1.19704594        0.07819369        0.00893090        0.00104509
       -9.85985986        1.40265064        0.10375135        1.21008736        0.07872610        0.00901206        0.00107378
       -9.84984985        1.41342045        0.10458133        1.21966699        0.07900284        0.00906911        0.00110018
       -9.83983984        1.42012106        0.10514577        1.22572455        0.07902475        0.00910195        0.00112403
       -9.82982983        1.42273653        0.10544185        1.22824322        0.07879564        0.00911071        0.00114510
       -9.81981982        1.42130018        0.10546870        1.22725025        0.07832225        0.00909578        0.00116321
       -9.80980981        1.41589397        0.10522741        1.22281646        0.07761416        0.00905775        0.00117819
       -9.79979980        1.40664665        0.10472101        1.21505465        0.07668358        0.00899745        0.00118996
       -9.78978979        1.39373063        0.10395441        1.20411674        0.07554513        0.00891591        0.00119845
       -9.77977978        1.37735780        0.10293438        1.19018998        0.07421546        0.00881433        0.00120366
       -9.76976977        1.35777438        0.10166949        1.17349231        0.07271292        0.00869404        0.00120562
       -9.75975976        1.33525514        0.10017007        1.15426696        0.07105716        0.00855651        0.00120443
       -9.74974975        1.31009717        0.09844813        1.13277681        0.06926875        0.00840328        0.00120020
       -9.73973974        1.28261357        0.09651730        1.10929849        0.06736874        0.00823596        0.00119309
       -9.72972973        1.25312722        0.09439275        1.08411663        0.06537837        0.00805619        0.00118328
       -9.71971972        1.22196485        0.09209111        1.05751843        0.06331866        0.00786565        0.00117099
       -9.70970971        1.18945158        0.08963034        1.02978861        0.06121019        0.00766601        0.00115643
       -9.69969970        1.15590613        0.08702957        1.00120497        0.05907278        0.00745895        0.00113986
       -9.68968969        1.12163649        0.08430893        0.97203456        0.05692535        0.00724614        0.00112151
       -9.67967968        1.08693639        0.08148934        0.94253052        0.05478568        0.00702922        0.00110163
       -9.66966967        1.05208230        0.07859219        0.91292951        0.05267028        0.00680983        0.00108048
       -9.65965966        1.01733115        0.07563912        0.88344984        0.05059430        0.00658956        0.00105832
       -9.64964965        0.98291853        0.07265164        0.85429016        0.04857138        0.00636997        0.00103538
       -9.63963964        0.94905763        0.06965081        0.82562874        0.04661359        0.00615256        0.00101193
       -9.62962963        0.91593874        0.06665695        0.79762345        0.04473138        0.00593876        0.00098819
       -9.61961962        0.88372938        0.06368928        0.77041222        0.04293352        0.00572994        0.00096442
       -9.60960961        0.85257518        0.06076566        0.74411418        0.04122715        0.00552734        0.00094085
       -9.59959960        0.82260133        0.05790238        0.71883137        0.03961774        0.00533213        0.00091772
       -9.58958959        0.79391487        0.05511401        0.69465106        0.03810924        0.00514531        0.00089526
       -9.57957958        0.76660749        0.05241327        0.67164859        0.03670414        0.00496779        0.00087370
       -9.56956957        0.74075893        0.04981105        0.64989059        0.03540370        0.00480031        0.00085327
       -9.55955956        0.71644081        0.04731644        0.62943858        0.03420807        0.00464350        0.00083421
       -9.54954955        0.69372070        0.04493687        0.61035264        0.03311660        0.00449783        0.00081676
       -9.53953954        0.67266617        0.04267824        0.59269509        0.03212802        0.00436368        0.00080113
       -9.52952953        0.65334868        0.04054514        0.57653385        0.03124079        0.00424131        0.00078758
       -9.51951952        0.63584692        0.03854108        0.56194532        0.03045327        0.00413090        0.00077635
       -9.50950951        0.62024957        0.03666869        0.54901660        0.02976401        0.00403260        0.00076766
       -9.49949950        0.60665701        0.03492996        0.53784683        0.02917195        0.00394651        0.00076178
       -9.48948949        0.59518209        0.03332637        0.52854753        0.02867652        0.00387274        0.00075892
       -9.47947948        0.58594963        0.03185911        0.52124189        0.02827782        0.00381146        0.00075935
       -9.46946947        0.57909478        0.03052910        0.51606291        0.02797661        0.00376287        0.00076328
       -9.45945946        0.57476009        0.02933707        0.51315048        0.02777432        0.00372728        0.00077094
       -9.44944945        0.57309155        0.02828355        0.51264742        0.02767295        0.00370508        0.00078254
       -9.43943944        0.57423352        0.02736878        0.51469467        0.02767498        0.00369679        0.00079828
       -9.42942943        0.57832289        0.02659265        0.51942571        0.02778317        0.00370305        0.00081832
       -9.41941942        0.58548262        0.02595448        0.52696041        0.02800035        0.00372459        0.00084280
       -9.40940941        0.59581479        0.02545291        0.53739863        0.02832917        0.00376226        0.00087181
       -9.39939940        0.60939354        0.02508569        0.55081361        0.02877185        0.00381696        0.00090543
       -9.38938939        0.62625815        0.02484949        0.56724551        0.02932988        0.00388963        0.00094365
       -9.37937938        0.64640635        0.02473969        0.58669532        0.03000373        0.00398118        0.00098643
       -9.36936937        0.66978839        0.02475030        0.60911939        0.03079258        0.00409245        0.00103366
       -9.35935936        0.69630184        0.02487378        0.63442468        0.03169406        0.00422417        0.00108515
       -9.34934935        0.72578767        0.02510101        0.66246522        0.03270397        0.00437682        0.00114065
       -9.33933934        0.75802755        0.02542125        0.69303968        0.03381612        0.00455066        0.00119983
       -9.32932933        0.79274284        0.02582225        0.72589058        0.03502214        0.00474560        0.00126228
       -9.31931932        0.82959527        0.02629030        0.76070491        0.03631143        0.00496115        0.00132750
       -9.30930931        0.86818950        0.02681044        0.79711666        0.03767108        0.00519640        0.00139493
       -9.29929930        0.90807768        0.02736674        0.83471105        0.03908600        0.00544996        0.00146393
       -9.28928929        0.94876590        0.02794250        0.87303058        0.04053904        0.00571998        0.00153380
       -9.27927928        0.98972255        0.02852068        0.91158275        0.04201125        0.00600409        0.00160378
       -9.26926927        1.03038836        0.02908417        0.94984942        0.04348219        0.00629948        0.00167309
       -9.25925926        1.07018791        0.02961626        0.98729743        0.04493041        0.00660290        0.00174091
       -9.24924925        1.10854227        0.03010093        1.02339031        0.04633390        0.00691074        0.00180640
       -9.23923924        1.14488232        0.03052326        1.05760057        0.04767066        0.00721909        0.00186874
       -9.22922923        1.17866243        0.03086976        1.08942235        0.04891932        0.00752385        0.00192715
       -9.21921922        1.20937381        0.03112866        1.11838379        0.05005967        0.00782081        0.00198088
       -9.20920921        1.23655731        0.03129017        1.14405882        0.05107334        0.00810576        0.00202923
       -9.19919920        1.25981494        0.03134662        1.16607785        0.05194426        0.00837461        0.00207160
       -9.18918919        1.27881983        0.03129268        1.18413698        0.05265920        0.00862350        0.00210747
       -9.17917918        1.29332426        0.03112533        1.19800548        0.05320817        0.00884887        0.00213641
       -9.16916917        1.30316542        0.03084393        1.20753108        0.05358467        0.00904761        0.00215812
       -9.15915916        1.30826875        0.03045013        1.21264319        0.05378595        0.00921708        0.00217240
       -9.14914915        1.30864879        0.02994777        1.21335362        0.05381302        0.00935522        0.00217917
       -9.13913914        1.30440751        0.02934270        1.20975512        0.05367063        0.00946060        0.00217845
       -9.12912913        1.29573025        0.02864262        1.20201770        0.05336709        0.00953242        0.00217042
       -9.11911912        1.28287954        0.02785677        1.19038282        0.05291404        0.00957058        0.00215533
       -9.10910911        1.26618690        0.02699577        1.17515593        0.05232604        0.00957563        0.00213353
       -9.09909910        1.24604311        0.02607123        1.15669741        0.05162020        0.00954876        0.00210551
       -9.08908909        1.22288722        0.02509556        1.13541245        0.05081561        0.00949182        0.00207179
       -9.07907908        1.19719469        0.02408161        1.11174003        0.04993287        0.00940718        0.00203300
       -9.06906907        1.16946508        0.02304244        1.08614157        0.04899351        0.00929774        0.00198981
       -9.05905906        1.14020961        0.02199100        1.05908942        0.04801940        0.00916683        0.00194295
       -9.04904905        1.10993901        0.02093990        1.03105563        0.04703224        0.00901807        0.00189317
       -9.03903904        1.07915201        0.01990115        1.00250130        0.04605296        0.00885536        0.00184124
       -9.02902903        1.04832470        0.01888596        0.97386683        0.04510128        0.00868271        0.00178792
       -9.01901902        1.01790107        0.01790455        0.94556317        0.04419522        0.00850415        0.00173397
       -9.00900901        0.98828495        0.01696601        0.91796451        0.04335070        0.00832362        0.00168010
       -8.99899900        0.95983354        0.01607817        0.89140226        0.04258126        0.00814487        0.00162698
       -8.98898899        0.93285252        0.01524751        0.86616072        0.04189772        0.00797136        0.00157521
       -8.97897898        0.90759293        0.01447913        0.84247422        0.04130810        0.00780615        0.00152533
       -8.96896897        0.88424973        0.01377674        0.82052591        0.04081744        0.00765187        0.00147777
       -8.95895896        0.86296198        0.01314270        0.80044791        0.04042785        0.00751062        0.00143289
       -8.94894895        0.84381446        0.01257807        0.78232291        0.04013856        0.00738397        0.00139095
       -8.93893894        0.82684065        0.01208270        0.76618689        0.03994603        0.00727291        0.00135211
       -8.92892893        0.81202676        0.01165537        0.75203282        0.03984426        0.00717788        0.00131644
       -8.91891892        0.79931662        0.01129390        0.73981506        0.03982499        0.00709876        0.00128391
       -8.90890891        0.78861715        0.01099532        0.72945428        0.03987813        0.00703497        0.00125444
       -8.89889890        0.77980421        0.01075604        0.72084274        0.03999208        0.00698549        0.00122786
       -8.88888889        0.77272857        0.01057198        0.71384952        0.04015418        0.00694895        0.00120394
       -8.87887888        0.76722190        0.01043876        0.70832584        0.04035119        0.00692369        0.00118243
       -8.86886887        0.76310249        0.01035179        0.70411009        0.04056967        0.00690790        0.00116304
       -8.85885886        0.76018077        0.01030647        0.70103270        0.04079648        0.00689967        0.00114547
       -8.84884885        0.75826450        0.01029824        0.69892060        0.04101915        0.00689709        0.00112943
       -8.83883884        0.75716348        0.01032272        0.69760149        0.04122629        0.00689835        0.00111463
       -8.82882883        0.75669399        0.01037574        0.69690767        0.04140795        0.00690179        0.00110084
       -8.81881882        0.75668271        0.01045339        0.69667967        0.04155582        0.00690600        0.00108781
       -8.80880881        0.75697022        0.01055205        0.69676941        0.04166355        0.00690982        0.00107539
       -8.79879880        0.75741406        0.01066840        0.69704304        0.04172679        0.00691240        0.00106343
       -8.78878879        0.75789113        0.01079936        0.69738337        0.04174334        0.00691321        0.00105184
       -8.77877878        0.75829952        0.01094212        0.69769167        0.04171308        0.00691205        0.00104060
       -8.76876877        0.75855957        0.01109401        0.69788894        0.04163791        0.00690900        0.00102970
       -8.75875876        0.75861414        0.01125253        0.69791641        0.04152157        0.00690444        0.00101919
       -8.74874875        0.75842797        0.01141522        0.69773524        0.04136941        0.00689895        0.00100915
       -8.73873874        0.75798616        0.01157965        0.69732543        0.04118811        0.00689330        0.00099967
       -8.72872873        0.75729175        0.01174336        0.69668381        0.04098532        0.00688837        0.00099089
       -8.71871872        0.75636246        0.01190381        0.69582137        0.04076927        0.00688509        0.00098292
       -8.70870871        0.75522688        0.01205836        0.69475982        0.04054843        0.00688438        0.00097589
       -8.69869870        0.75392008        0.01220429        0.69352774        0.04033105        0.00688707        0.00096992
       -8.68868869        0.75247907        0.01233878        0.69215649        0.04012482        0.00689388        0.00096510
       -8.67867868        0.75093829        0.01245898        0.69067604        0.03993646        0.00690530        0.00096150
       -8.66866867        0.74932547        0.01256206        0.68911116        0.03977143        0.00692164        0.00095916
       -8.65865866        0.74765802        0.01264530        0.68747805        0.03963365        0.00694293        0.00095808
       -8.64864865        0.74594032        0.01270615        0.68578173        0.03952528        0.00696894        0.00095822
       -8.63863864        0.74416187        0.01274236        0.68401430        0.03944657        0.00699914        0.00095949
       -8.62862863        0.74229668        0.01275206        0.68215422        0.03939584        0.00703276        0.00096180
       -8.61861862        0.74030365        0.01273388        0.68016663        0.03936941        0.00706877        0.00096497
       -8.60860861        0.73812805        0.01268699        0.67800455        0.03936176        0.00710593        0.00096883
       -8.59859860        0.73570399        0.01261120        0.67561115        0.03936567        0.00714280        0.00097318
       -8.58858859        0.73295768        0.01250701        0.67292260        0.03937245        0.00717785        0.00097777
       -8.57857858        0.72981125        0.01237555        0.66987160        0.03937229        0.00720944        0.00098238
       -8.56856857        0.72618704        0.01221866        0.66639112        0.03935458        0.00723593        0.00098675
       -8.55855856        0.72201201        0.01203874        0.66241849        0.03930841        0.00725572        0.00099065
       -8.54854855        0.71722216        0.01183875        0.65789924        0.03922298        0.00726734        0.00099385
       -8.53853854        0.71176666        0.01162210        0.65279085        0.03908812        0.00726944        0.00099615
       -8.52852853        0.70561168        0.01139249        0.64706608        0.03889480        0.00726094        0.00099736
       -8.51851852        0.69874365        0.01115385        0.64071580        0.03863562        0.00724103        0.00099735
       -8.50850851        0.69117192        0.01091020        0.63375125        0.03830526        0.00720921        0.00099599
       -8.49849850        0.68293064        0.01066551        0.62620560        0.03790091        0.00716537        0.00099325
       -8.48848849        0.67407994        0.01042365        0.61813485        0.03742255        0.00710980        0.00098910
       -8.47847848        0.66470621        0.01018826        0.60961795        0.03687324        0.00704318        0.00098358
       -8.46846847        0.65492154        0.00996275        0.60075615        0.03625920        0.00696664        0.00097681
