#  aims_uuid : F128D8B5-E5F3-407F-ADF6-DC6AC86BB935                                
#  angular momentum projected density of states for species S as calculated by FHI-aims 
# The energy reference for this output is the vacuum level =       0.000000 eV
#      Energy (eV)         total dos     l= 0              l= 1              l= 2              l= 3              l= 4
      -10.00000000        1.06792115        0.07864243        0.92416706        0.05783821        0.00665923        0.00061421
       -9.98998999        1.11962931        0.08292957        0.96821787        0.06087731        0.00696185        0.00064271
       -9.97997998        1.17045718        0.08713826        1.01152949        0.06385739        0.00725889        0.00067315
       -9.96996997        1.21996535        0.09124120        1.05371587        0.06675432        0.00754861        0.00070536
       -9.95995996        1.26771962        0.09521126        1.09439603        0.06954388        0.00782926        0.00073919
       -9.94994995        1.31329613        0.09902168        1.13319892        0.07220197        0.00809915        0.00077441
       -9.93993994        1.35628628        0.10264622        1.16976800        0.07470473        0.00835654        0.00081079
       -9.92992993        1.39630129        0.10605932        1.20376539        0.07702881        0.00859974        0.00084802
       -9.91991992        1.43297685        0.10923639        1.23487599        0.07915161        0.00882705        0.00088580
       -9.90990991        1.46597759        0.11215402        1.26281138        0.08105164        0.00903679        0.00092375
       -9.89989990        1.49500164        0.11479026        1.28731365        0.08270892        0.00922732        0.00096149
       -9.88988989        1.51978507        0.11712491        1.30815906        0.08410541        0.00939708        0.00099860
       -9.87987988        1.54010613        0.11913977        1.32516156        0.08522554        0.00954461        0.00103465
       -9.86986987        1.55578910        0.12081886        1.33817582        0.08605664        0.00966860        0.00106918
       -9.85985986        1.56670756        0.12214866        1.34709976        0.08658945        0.00976793        0.00110176
       -9.84984985        1.57278678        0.12311820        1.35187642        0.08681850        0.00984169        0.00113196
       -9.83983984        1.57400507        0.12371921        1.35249482        0.08674240        0.00988926        0.00115938
       -9.82982983        1.57039400        0.12394617        1.34898986        0.08636400        0.00991030        0.00118367
       -9.81981982        1.56203724        0.12379633        1.34144115        0.08569046        0.00990479        0.00120452
       -9.80980981        1.54906820        0.12326973        1.32997070        0.08473305        0.00987303        0.00122169
       -9.79979980        1.53166647        0.12236921        1.31473971        0.08350690        0.00981562        0.00123502
       -9.78978979        1.51005331        0.12110040        1.29594447        0.08203053        0.00973348        0.00124442
       -9.77977978        1.48448640        0.11947175        1.27381170        0.08032529        0.00962779        0.00124987
       -9.76976977        1.45525420        0.11749457        1.24859352        0.07841472        0.00949997        0.00125142
       -9.75975976        1.42267014        0.11518304        1.22056243        0.07632386        0.00935161        0.00124921
       -9.74974975        1.38706709        0.11255431        1.19000634        0.07407852        0.00918449        0.00124343
       -9.73973974        1.34879213        0.10962850        1.15722415        0.07170468        0.00900047        0.00123433
       -9.72972973        1.30820196        0.10642874        1.12252173        0.06922784        0.00880147        0.00122219
       -9.71971972        1.26565896        0.10298105        1.08620857        0.06667255        0.00858945        0.00120735
       -9.70970971        1.22152789        0.09931430        1.04859502        0.06406206        0.00836636        0.00119014
       -9.69969970        1.17617312        0.09545991        1.00999006        0.06141807        0.00813415        0.00117093
       -9.68968969        1.12995636        0.09145156        0.97069946        0.05876057        0.00789471        0.00115006
       -9.67967968        1.08323456        0.08732471        0.93102421        0.05610789        0.00764988        0.00112788
       -9.66966967        1.03635798        0.08311609        0.89125904        0.05347668        0.00740144        0.00110473
       -9.65965966        0.98966818        0.07886300        0.85169097        0.05088214        0.00715114        0.00108092
       -9.64964965        0.94349585        0.07460266        0.81259768        0.04833811        0.00690064        0.00105676
       -9.63963964        0.89815856        0.07037138        0.77424584        0.04585730        0.00665155        0.00103250
       -9.62962963        0.85395834        0.06620386        0.73688926        0.04345141        0.00640541        0.00100839
       -9.61961962        0.81117929        0.06213246        0.70076714        0.04113134        0.00616368        0.00098467
       -9.60960961        0.77008542        0.05818657        0.66610237        0.03890719        0.00592775        0.00096155
       -9.59959960        0.73091876        0.05439208        0.63310015        0.03678840        0.00569892        0.00093921
       -9.58958959        0.69389807        0.05077100        0.60194712        0.03478373        0.00547839        0.00091784
       -9.57957958        0.65921828        0.04734126        0.57281094        0.03290123        0.00526723        0.00089761
       -9.56956957        0.62705064        0.04411662        0.54584068        0.03114820        0.00506643        0.00087871
       -9.55955956        0.59754385        0.04110679        0.52116776        0.02953116        0.00487683        0.00086131
       -9.54954955        0.57082581        0.03831770        0.49890761        0.02805574        0.00469917        0.00084558
       -9.53953954        0.54700614        0.03575189        0.47916179        0.02672669        0.00453404        0.00083173
       -9.52952953        0.52617916        0.03340895        0.46202046        0.02554785        0.00438197        0.00081994
       -9.51951952        0.50842704        0.03128608        0.44756502        0.02452217        0.00424334        0.00081042
       -9.50950951        0.49382294        0.02937869        0.43587060        0.02365173        0.00411851        0.00080341
       -9.49949950        0.48243385        0.02768086        0.42700822        0.02293790        0.00400774        0.00079913
       -9.48948949        0.47432289        0.02618593        0.42104643        0.02238138        0.00391131        0.00079784
       -9.47947948        0.46955085        0.02488690        0.41805232        0.02198240        0.00382947        0.00079977
       -9.46946947        0.46817690        0.02377673        0.41809161        0.02174084        0.00376251        0.00080520
       -9.45945946        0.47025829        0.02284864        0.42122809        0.02165637        0.00371081        0.00081440
       -9.44944945        0.47584919        0.02209617        0.42752204        0.02172857        0.00367479        0.00082761
       -9.43943944        0.48499855        0.02151327        0.43702809        0.02195706        0.00365501        0.00084512
       -9.42942943        0.49774716        0.02109413        0.44979225        0.02234147        0.00365215        0.00086715
       -9.41941942        0.51412401        0.02083315        0.46584848        0.02288145        0.00366698        0.00089395
       -9.40940941        0.53414206        0.02072461        0.48521473        0.02357658        0.00370043        0.00092571
       -9.39939940        0.55779351        0.02076249        0.50788873        0.02442617        0.00375350        0.00096261
       -9.38938939        0.58504479        0.02094022        0.53384348        0.02542904        0.00382728        0.00100476
       -9.37937938        0.61583131        0.02125035        0.56302261        0.02658323        0.00392289        0.00105224
       -9.36936937        0.65005217        0.02168439        0.59533572        0.02788561        0.00404143        0.00110502
       -9.35935936        0.68756489        0.02223259        0.63065384        0.02933152        0.00418391        0.00116303
       -9.34934935        0.72818047        0.02288381        0.66880496        0.03091442        0.00435121        0.00122608
       -9.33933934        0.77165892        0.02362543        0.70957017        0.03262549        0.00454396        0.00129387
       -9.32932933        0.81770549        0.02444339        0.75268025        0.03445335        0.00476250        0.00136600
       -9.31931932        0.86596805        0.02532221        0.79781323        0.03638387        0.00500679        0.00144194
       -9.30930931        0.91603576        0.02624516        0.84459321        0.03840001        0.00527634        0.00152104
       -9.29929930        0.96743959        0.02719446        0.89259058        0.04048189        0.00557014        0.00160252
       -9.28928929        1.01965483        0.02815153        0.94132426        0.04260690        0.00588665        0.00168549
       -9.27927928        1.07210608        0.02909732        0.99026602        0.04475006        0.00622372        0.00176895
       -9.26926927        1.12417468        0.03001270        1.03884709        0.04688442        0.00657863        0.00185184
       -9.25925926        1.17520882        0.03087878        1.08646733        0.04898163        0.00694808        0.00193300
       -9.24924925        1.22453623        0.03167741        1.13250671        0.05101262        0.00732823        0.00201126
       -9.23923924        1.27147905        0.03239152        1.17633895        0.05294836        0.00771477        0.00208545
       -9.22922923        1.31537053        0.03300556        1.21734697        0.05476061        0.00810297        0.00215441
       -9.21921922        1.35557305        0.03350588        1.25493953        0.05642273        0.00848786        0.00221706
       -9.20920921        1.39149639        0.03388103        1.28856832        0.05791040        0.00886423        0.00227240
       -9.19919920        1.42261574        0.03412210        1.31774484        0.05920235        0.00922686        0.00231957
       -9.18918919        1.44848829        0.03422288        1.34205604        0.06028091        0.00957061        0.00235785
       -9.17917918        1.46876768        0.03417999        1.36117797        0.06113247        0.00989055        0.00238670
       -9.16916917        1.48321533        0.03399295        1.37488668        0.06174784        0.01018209        0.00240577
       -9.15915916        1.49170820        0.03366414        1.38306563        0.06212239        0.01044113        0.00241490
       -9.14914915        1.49424229        0.03319860        1.38570926        0.06225613        0.01066416        0.00241414
       -9.13913914        1.49093179        0.03260390        1.38292231        0.06215355        0.01084831        0.00240372
       -9.12912913        1.48200380        0.03188979        1.37491503        0.06182344        0.01099150        0.00238405
       -9.11911912        1.46778888        0.03106785        1.36199444        0.06127847        0.01109241        0.00235571
       -9.10910911        1.44870788        0.03015111        1.34455196        0.06053481        0.01115057        0.00231943
       -9.09909910        1.42525578        0.02915364        1.32304821        0.05961156        0.01116633        0.00227604
       -9.08908909        1.39798325        0.02809008        1.29799569        0.05853021        0.01114082        0.00222645
       -9.07907908        1.36747696        0.02697528        1.26994012        0.05731399        0.01107594        0.00217163
       -9.06906907        1.33433939        0.02582387        1.23944141        0.05598725        0.01097427        0.00211259
       -9.05905906        1.29916932        0.02464993        1.20705527        0.05457482        0.01083899        0.00205032
       -9.04904905        1.26254365        0.02346670        1.17331600        0.05310141        0.01067375        0.00198578
       -9.03903904        1.22500140        0.02228638        1.13872147        0.05159101        0.01048262        0.00191991
       -9.02902903        1.18703044        0.02111993        1.10372073        0.05006635        0.01026989        0.00185353
       -9.01901902        1.14905746        0.01997695        1.06870466        0.04854842        0.01003999        0.00178743
       -9.00900901        1.11144143        0.01886571        1.03399999        0.04705606        0.00979739        0.00172228
       -8.99899900        1.07447051        0.01779307        0.99986672        0.04560566        0.00954641        0.00165864
       -8.98898899        1.03836256        0.01676459        0.96649887        0.04421091        0.00929120        0.00159699
       -8.97897898        1.00326879        0.01578456        0.93402825        0.04288269        0.00903560        0.00153769
       -8.96896897        0.96928026        0.01485617        0.90253093        0.04162907        0.00878308        0.00148102
       -8.95895896        0.93643666        0.01398155        0.87203589        0.04045539        0.00853667        0.00142716
       -8.94894895        0.90473681        0.01316198        0.84253522        0.03936445        0.00829895        0.00137622
       -8.93893894        0.87415021        0.01239795        0.81399519        0.03835680        0.00807205        0.00132823
       -8.92892893        0.84462882        0.01168932        0.78636766        0.03743109        0.00785759        0.00128316
       -8.91891892        0.81611862        0.01103543        0.75960099        0.03658448        0.00765677        0.00124095
       -8.90890891        0.78857008        0.01043519        0.73364995        0.03581307        0.00747036        0.00120151
       -8.89889890        0.76194706        0.00988719        0.70848407        0.03511233        0.00729878        0.00116470
       -8.88888889        0.73623375        0.00938978        0.68409396        0.03447752        0.00714210        0.00113040
       -8.87887888        0.71143925        0.00894114        0.66049546        0.03390402        0.00700015        0.00109848
       -8.86886887        0.68759964        0.00853935        0.63773129        0.03338767        0.00687253        0.00106880
       -8.85885886        0.66477762        0.00818244        0.61587030        0.03292492        0.00675870        0.00104126
       -8.84884885        0.64305969        0.00786840        0.59500454        0.03251300        0.00665799        0.00101576
       -8.83883884        0.62255134        0.00759528        0.57524433        0.03214988        0.00656964        0.00099222
       -8.82882883        0.60337055        0.00736115        0.55671171        0.03183426        0.00649285        0.00097058
       -8.81881882        0.58564005        0.00716412        0.53953291        0.03156542        0.00642679        0.00095081
       -8.80880881        0.56947899        0.00700235        0.52383015        0.03134297        0.00637063        0.00093289
       -8.79879880        0.55499442        0.00687404        0.50971335        0.03116670        0.00632352        0.00091681
       -8.78878879        0.54227324        0.00677735        0.49727241        0.03103626        0.00628464        0.00090259
       -8.77877878        0.53137499        0.00671043        0.48657022        0.03095096        0.00625316        0.00089022
       -8.76876877        0.52232595        0.00667134        0.47763708        0.03090953        0.00622827        0.00087973
       -8.75875876        0.51511482        0.00665799        0.47046653        0.03091001        0.00620918        0.00087112
       -8.74874875        0.50969022        0.00666812        0.46501303        0.03094958        0.00619511        0.00086438
       -8.73873874        0.50596005        0.00669923        0.46119144        0.03102457        0.00618530        0.00085951
       -8.72872873        0.50379285        0.00674856        0.45887833        0.03113047        0.00617903        0.00085646
       -8.71871872        0.50302088        0.00681307        0.45791500        0.03126204        0.00617559        0.00085517
       -8.70870871        0.50344489        0.00688943        0.45811216        0.03141340        0.00617433        0.00085557
       -8.69869870        0.50484035        0.00697405        0.45925583        0.03157831        0.00617463        0.00085753
       -8.68868869        0.50696463        0.00706310        0.46111440        0.03175028        0.00617591        0.00086093
       -8.67867868        0.50956504        0.00715264        0.46344628        0.03192287        0.00617767        0.00086559
       -8.66866867        0.51238721        0.00723861        0.46600800        0.03208981        0.00617944        0.00087135
       -8.65865866        0.51518338        0.00731703        0.46856228        0.03224527        0.00618081        0.00087798
       -8.64864865        0.51772040        0.00738406        0.47088567        0.03238394        0.00618145        0.00088528
       -8.63863864        0.51978685        0.00743613        0.47277551        0.03250114        0.00618106        0.00089302
       -8.62862863        0.52119917        0.00747006        0.47405590        0.03259288        0.00617937        0.00090096
       -8.61861862        0.52180643        0.00748317        0.47458234        0.03265587        0.00617617        0.00090888
       -8.60860861        0.52149363        0.00747338        0.47424500        0.03268744        0.00617127        0.00091655
       -8.59859860        0.52018338        0.00743924        0.47297040        0.03268549        0.00616448        0.00092377
       -8.58858859        0.51783605        0.00738002        0.47072163        0.03264842        0.00615563        0.00093035
       -8.57857858        0.51444836        0.00729567        0.46749706        0.03257498        0.00614454        0.00093610
       -8.56856857        0.51005080        0.00718682        0.46332781        0.03246425        0.00613102        0.00094090
       -8.55855856        0.50470391        0.00705470        0.45827420        0.03231553        0.00611487        0.00094461
       -8.54854855        0.49849392        0.00690114        0.45242143        0.03212832        0.00609588        0.00094716
       -8.53853854        0.49152794        0.00672838        0.44587488        0.03190238        0.00607382        0.00094847
       -8.52852853        0.48392919        0.00653905        0.43875534        0.03163777        0.00604851        0.00094851
       -8.51851852        0.47583244        0.00633602        0.43119438        0.03133498        0.00601977        0.00094729
       -8.50850851        0.46738006        0.00612232        0.42333038        0.03099505        0.00598748        0.00094483
       -8.49849850        0.45871874        0.00590105        0.41530505        0.03061983        0.00595161        0.00094119
       -8.48848849        0.44999710        0.00567533        0.40726096        0.03021211        0.00591225        0.00093646
       -8.47847848        0.44136419        0.00544824        0.39933973        0.02977584        0.00586962        0.00093077
       -8.46846847        0.43296871        0.00522278        0.39168119        0.02931634        0.00582414        0.00092425
