#  aims_uuid : F128D8B5-E5F3-407F-ADF6-DC6AC86BB935                                
#  angular momentum projected density of states for species Mo as calculated by FHI-aims 
# The energy reference for this output is the chemical potential, mu =      -5.106688 eV
#      Energy (eV)         total dos     l= 0              l= 1              l= 2              l= 3              l= 4
       -4.89331207        0.97830475        0.03542170        0.15122898        0.77935378        0.01060827        0.00169201
       -4.88330206        1.02185283        0.03955952        0.16025353        0.80909316        0.01116110        0.00178552
       -4.87329205        1.06453003        0.04403276        0.16928451        0.83760156        0.01173383        0.00187738
       -4.86328204        1.10600852        0.04883604        0.17823010        0.86465332        0.01232212        0.00196694
       -4.85327203        1.14596993        0.05395735        0.18699442        0.89004317        0.01292142        0.00205357
       -4.84326202        1.18410729        0.05937723        0.19547887        0.91358752        0.01352702        0.00213664
       -4.83325201        1.22012643        0.06506816        0.20358371        0.93512489        0.01413411        0.00221557
       -4.82324200        1.25374726        0.07099409        0.21120969        0.95451588        0.01473784        0.00228977
       -4.81323199        1.28470506        0.07711029        0.21825988        0.97164280        0.01533337        0.00235871
       -4.80322198        1.31275214        0.08336338        0.22464161        0.98640929        0.01591595        0.00242191
       -4.79321197        1.33766010        0.08969183        0.23026849        0.99873999        0.01648087        0.00247892
       -4.78320196        1.35922254        0.09602672        0.23506247        1.00858043        0.01702356        0.00252936
       -4.77319195        1.37725851        0.10229291        0.23895589        1.01589719        0.01753960        0.00257291
       -4.76318194        1.39161624        0.10841057        0.24189335        1.02067823        0.01802477        0.00260932
       -4.75317193        1.40217719        0.11429704        0.24383341        1.02293328        0.01847504        0.00263843
       -4.74316192        1.40885993        0.11986889        0.24474997        1.02269424        0.01888668        0.00266015
       -4.73315191        1.41162353        0.12504428        0.24463324        1.02001526        0.01925627        0.00267448
       -4.72314190        1.41047030        0.12974525        0.24349024        1.01497254        0.01958074        0.00268152
       -4.71313189        1.40544738        0.13390017        0.24134476        1.00766357        0.01985745        0.00268144
       -4.70312188        1.39664714        0.13744590        0.23823679        0.99820576        0.02008421        0.00267447
       -4.69311187        1.38420624        0.14032982        0.23422144        0.98673466        0.02025935        0.00266095
       -4.68310186        1.36830329        0.14251150        0.22936731        0.97340150        0.02038174        0.00264124
       -4.67309185        1.34915536        0.14396391        0.22375443        0.95837045        0.02045080        0.00261578
       -4.66308184        1.32701342        0.14467422        0.21747198        0.94181566        0.02046656        0.00258501
       -4.65307183        1.30215702        0.14464403        0.21061566        0.92391822        0.02042968        0.00254942
       -4.64306182        1.27488845        0.14388917        0.20328508        0.90486329        0.02034138        0.00250952
       -4.63305181        1.24552684        0.14243890        0.19558109        0.88483753        0.02020352        0.00246581
       -4.62304180        1.21440221        0.14033472        0.18760334        0.86402689        0.02001849        0.00241877
       -4.61303179        1.18184991        0.13762884        0.17944804        0.84261485        0.01978927        0.00236891
       -4.60302178        1.14820545        0.13438231        0.17120603        0.82078112        0.01951928        0.00231671
       -4.59301177        1.11379996        0.13066295        0.16296125        0.79870069        0.01921243        0.00226264
       -4.58300176        1.07895610        0.12654325        0.15478958        0.77654315        0.01887295        0.00220715
       -4.57299175        1.04398457        0.12209820        0.14675809        0.75447218        0.01850540        0.00215070
       -4.56298174        1.00918113        0.11740327        0.13892462        0.73264502        0.01811449        0.00209373
       -4.55297173        0.97482390        0.11253249        0.13133779        0.71121188        0.01770507        0.00203668
       -4.54296172        0.94117122        0.10755684        0.12403720        0.69031526        0.01728195        0.00197997
       -4.53295171        0.90845964        0.10254280        0.11705395        0.67008899        0.01684985        0.00192406
       -4.52294170        0.87690245        0.09755128        0.11041124        0.65065727        0.01641330        0.00186936
       -4.51293169        0.84668838        0.09263677        0.10412525        0.63213352        0.01597653        0.00181632
       -4.50292168        0.81798095        0.08784677        0.09820597        0.61461943        0.01554342        0.00176537
       -4.49291167        0.79091824        0.08322156        0.09265819        0.59820410        0.01511745        0.00171694
       -4.48290166        0.76561330        0.07879408        0.08748245        0.58296363        0.01470167        0.00167147
       -4.47289165        0.74215524        0.07459012        0.08267600        0.56896106        0.01429869        0.00162938
       -4.46288164        0.72061115        0.07062854        0.07823382        0.55624700        0.01391070        0.00159110
       -4.45287163        0.70102858        0.06692176        0.07414949        0.54486075        0.01353951        0.00155706
       -4.44286162        0.68343884        0.06347622        0.07041614        0.53483216        0.01318664        0.00152768
       -4.43285161        0.66786078        0.06029293        0.06702725        0.52618386        0.01285333        0.00150341
       -4.42284160        0.65430501        0.05736811        0.06397746        0.51893410        0.01254068        0.00148466
       -4.41283159        0.64277830        0.05469380        0.06126323        0.51309969        0.01224968        0.00147191
       -4.40282158        0.63328804        0.05225847        0.05888343        0.50869922        0.01198131        0.00146561
       -4.39281157        0.62584641        0.05004770        0.05683986        0.50575597        0.01173663        0.00146625
       -4.38280156        0.62047407        0.04804474        0.05513746        0.50430076        0.01151675        0.00147435
       -4.37279155        0.61720326        0.04623119        0.05378458        0.50437409        0.01132294        0.00149046
       -4.36278154        0.61607996        0.04458758        0.05279286        0.50602780        0.01115659        0.00151513
       -4.35277153        0.61716501        0.04309394        0.05217703        0.50932583        0.01101924        0.00154897
       -4.34276152        0.62053415        0.04173040        0.05195452        0.51434416        0.01091251        0.00159258
       -4.33275151        0.62627676        0.04047768        0.05214471        0.52116969        0.01083810        0.00164657
       -4.32274150        0.63449331        0.03931764        0.05276818        0.52989824        0.01079769        0.00171157
       -4.31273149        0.64529164        0.03823361        0.05384559        0.54063136        0.01079293        0.00178815
       -4.30272148        0.65878186        0.03721086        0.05539652        0.55347232        0.01082529        0.00187687
       -4.29271147        0.67507023        0.03623681        0.05743808        0.56852113        0.01089602        0.00197819
       -4.28270146        0.69425204        0.03530125        0.05998349        0.58586877        0.01100606        0.00209247
       -4.27269145        0.71640377        0.03439641        0.06304060        0.60559086        0.01115593        0.00221996
       -4.26268144        0.74157468        0.03351696        0.06661044        0.62774089        0.01134568        0.00236071
       -4.25267143        0.76977840        0.03265989        0.07068580        0.65234337        0.01157474        0.00251459
       -4.24266142        0.80098463        0.03182432        0.07525008        0.67938709        0.01184188        0.00268125
       -4.23265141        0.83511158        0.03101118        0.08027627        0.70881894        0.01214515        0.00286005
       -4.22264140        0.87201947        0.03022285        0.08572623        0.74053852        0.01248176        0.00305010
       -4.21263139        0.91150551        0.02946277        0.09155040        0.77439399        0.01284813        0.00325021
       -4.20262138        0.95330090        0.02873499        0.09768785        0.81017936        0.01323981        0.00345889
       -4.19261137        0.99706999        0.02804372        0.10406676        0.84763363        0.01365150        0.00367439
       -4.18260136        1.04241199        0.02739291        0.11060543        0.88644184        0.01407717        0.00389464
       -4.17259135        1.08886527        0.02678586        0.11721370        0.92623826        0.01451007        0.00411738
       -4.16258134        1.13591433        0.02622487        0.12379475        0.96661167        0.01494291        0.00434012
       -4.15257133        1.18299925        0.02571099        0.13024740        1.00711262        0.01536801        0.00456024
       -4.14256132        1.22952735        0.02524380        0.13646855        1.04726247        0.01577753        0.00477500
       -4.13255131        1.27488662        0.02482132        0.14235599        1.08656399        0.01616367        0.00498166
       -4.12254130        1.31846057        0.02443998        0.14781120        1.12451295        0.01651891        0.00517753
       -4.11253129        1.35964364        0.02409472        0.15274221        1.16061040        0.01683631        0.00536001
       -4.10252128        1.39785679        0.02377907        0.15706624        1.19437507        0.01710973        0.00552669
       -4.09251127        1.43256255        0.02348545        0.16071219        1.22535548        0.01733402        0.00567541
       -4.08250126        1.46327888        0.02320537        0.16362269        1.25314123        0.01750529        0.00580431
       -4.07249125        1.48959144        0.02292982        0.16575573        1.27737305        0.01762096        0.00591189
       -4.06248124        1.51116374        0.02264962        0.16708576        1.29775142        0.01767992        0.00599701
       -4.05247123        1.52774487        0.02235579        0.16760425        1.31404333        0.01768255        0.00605895
       -4.04246122        1.53917470        0.02203992        0.16731961        1.32608713        0.01763064        0.00609740
       -4.03245121        1.54538635        0.02169457        0.16625660        1.33379534        0.01752736        0.00611248
       -4.02244120        1.54640604        0.02131359        0.16445520        1.33715550        0.01737706        0.00610469
       -4.01243119        1.54235038        0.02089238        0.16196897        1.33622902        0.01718511        0.00607490
       -4.00242118        1.53342139        0.02042813        0.15886309        1.33114818        0.01695766        0.00602433
       -3.99241117        1.51989935        0.01991996        0.15521206        1.32211148        0.01670136        0.00595449
       -3.98240116        1.50213391        0.01936897        0.15109726        1.30937744        0.01642313        0.00586711
       -3.97239115        1.48053362        0.01877820        0.14660437        1.29325703        0.01612989        0.00576413
       -3.96238114        1.45555429        0.01815253        0.14182090        1.27410497        0.01582829        0.00564760
       -3.95237113        1.42768651        0.01749846        0.13683374        1.25231013        0.01552454        0.00551965
       -3.94236112        1.39744256        0.01682382        0.13172700        1.22828514        0.01522417        0.00538243
       -3.93235111        1.36534315        0.01613745        0.12658004        1.20245570        0.01493192        0.00523805
       -3.92234110        1.33190439        0.01544879        0.12146587        1.17524957        0.01465164        0.00508852
       -3.91233109        1.29762524        0.01476749        0.11644985        1.14708593        0.01438621        0.00493577
       -3.90232108        1.26297595        0.01410301        0.11158872        1.11836511        0.01413758        0.00478152
       -3.89231107        1.22838777        0.01346418        0.10693011        1.08945936        0.01390676        0.00462735
       -3.88230106        1.19424447        0.01285891        0.10251222        1.06070481        0.01369391        0.00447462
       -3.87229105        1.16087573        0.01229385        0.09836393        1.03239504        0.01349843        0.00432448
       -3.86228104        1.12855295        0.01177420        0.09450512        1.00477661        0.01331915        0.00417786
       -3.85227103        1.09748732        0.01130355        0.09094727        0.97804657        0.01315441        0.00403551
       -3.84226102        1.06783050        0.01088383        0.08769421        0.95235223        0.01300227        0.00389797
       -3.83225101        1.03967760        0.01051532        0.08474299        0.92779304        0.01286064        0.00376561
       -3.82224100        1.01307231        0.01019676        0.08208495        0.90442444        0.01272750        0.00363866
       -3.81223099        0.98801382        0.00992551        0.07970665        0.88226344        0.01260101        0.00351722
       -3.80222098        0.96446516        0.00969775        0.07759102        0.86129547        0.01247963        0.00340130
       -3.79221097        0.94236221        0.00950874        0.07571830        0.84148206        0.01236229        0.00329081
       -3.78220096        0.92162310        0.00935310        0.07406706        0.82276887        0.01224840        0.00318567
       -3.77219095        0.90215723        0.00922504        0.07261504        0.80509348        0.01213796        0.00308571
       -3.76218094        0.88387343        0.00911867        0.07133994        0.78839250        0.01203153        0.00299080
       -3.75217093        0.86668690        0.00902820        0.07022007        0.77260765        0.01193020        0.00290079
       -3.74216092        0.85052461        0.00894817        0.06923492        0.75769038        0.01183559        0.00281555
       -3.73215091        0.83532887        0.00887362        0.06836556        0.74360500        0.01174971        0.00273498
       -3.72214090        0.82105918        0.00880020        0.06759494        0.73033018        0.01167487        0.00265899
       -3.71213089        0.80769229        0.00872424        0.06690807        0.71785892        0.01161353        0.00258752
       -3.70212088        0.79522077        0.00864284        0.06629207        0.70619714        0.01156818        0.00252054
       -3.69211087        0.78365039        0.00855381        0.06573618        0.69536120        0.01154118        0.00245802
       -3.68210086        0.77299648        0.00845569        0.06523159        0.68537465        0.01153458        0.00239996
       -3.67209085        0.76327982        0.00834767        0.06477132        0.67626444        0.01155003        0.00234638
       -3.66208084        0.75452236        0.00822950        0.06434990        0.66805710        0.01158858        0.00229727
       -3.65207083        0.74674293        0.00810142        0.06396317        0.66077500        0.01165065        0.00225268
       -3.64206082        0.73995350        0.00796405        0.06360789        0.65443304        0.01173590        0.00221261
       -3.63205081        0.73415590        0.00781830        0.06328147        0.64903584        0.01184320        0.00217710
       -3.62204080        0.72933937        0.00766525        0.06298162        0.64457574        0.01197061        0.00214614
       -3.61203079        0.72547877        0.00750609        0.06270608        0.64103144        0.01211541        0.00211974
       -3.60202078        0.72253377        0.00734202        0.06245231        0.63836740        0.01227417        0.00209788
       -3.59201077        0.72044864        0.00717418        0.06221727        0.63653389        0.01244279        0.00208051
       -3.58200076        0.71915283        0.00700364        0.06199722        0.63546772        0.01261671        0.00206755
       -3.57199075        0.71856206        0.00683130        0.06178754        0.63509335        0.01279098        0.00205888
       -3.56198074        0.71857985        0.00665794        0.06158264        0.63532441        0.01296051        0.00205435
       -3.55197073        0.71909944        0.00648415        0.06137589        0.63606549        0.01312017        0.00205373
       -3.54196072        0.72000586        0.00631036        0.06115965        0.63721401        0.01326507        0.00205676
       -3.53195071        0.72117808        0.00613685        0.06092529        0.63866214        0.01339068        0.00206312
       -3.52194070        0.72249122        0.00596377        0.06066329        0.64029873        0.01349300        0.00207243
       -3.51193069        0.72381868        0.00579116        0.06036345        0.64201107        0.01356875        0.00208425
       -3.50192068        0.72503424        0.00561900        0.06001504        0.64368662        0.01361547        0.00209811
       -3.49191067        0.72601398        0.00544721        0.05960715        0.64521459        0.01363155        0.00211348
       -3.48190066        0.72663827        0.00527572        0.05912895        0.64648743        0.01361636        0.00212982
       -3.47189065        0.72679370        0.00510447        0.05857013        0.64740238        0.01357015        0.00214656
       -3.46188064        0.72637498        0.00493348        0.05792126        0.64786300        0.01349410        0.00216314
       -3.45187063        0.72528711        0.00476282        0.05717431        0.64778079        0.01339019        0.00217901
       -3.44186062        0.72344757        0.00459268        0.05632307        0.64707706        0.01326112        0.00219363
       -3.43185061        0.72078875        0.00442339        0.05536367        0.64568500        0.01311017        0.00220653
       -3.42184060        0.71726065        0.00425539        0.05429500        0.64355189        0.01294111        0.00221727
       -3.41183059        0.71283360        0.00408930        0.05311917        0.64064163        0.01275800        0.00222550
       -3.40182058        0.70750115        0.00392586        0.05184189        0.63693733        0.01256511        0.00223096
       -3.39181057        0.70128282        0.00376599        0.05047268        0.63244391        0.01236678        0.00223347
       -3.38180056        0.69422663        0.00361075        0.04902510        0.62719055        0.01216729        0.00223294
       -3.37179055        0.68641114        0.00346133        0.04751679        0.62123276        0.01197084        0.00222942
       -3.36178054        0.67794667        0.00331906        0.04596934        0.61465382        0.01178142        0.00222304
