#  aims_uuid : F128D8B5-E5F3-407F-ADF6-DC6AC86BB935                                
#  angular momentum projected density of states for species S as calculated by FHI-aims 
# The energy reference for this output is the vacuum level =       0.000000 eV
#      Energy (eV)         total dos     l= 0              l= 1              l= 2              l= 3              l= 4
      -10.00000000        0.98989175        0.07691188        0.85050043        0.05531827        0.00653479        0.00062638
       -9.98998999        1.03988360        0.08142164        0.89274929        0.05820590        0.00685185        0.00065494
       -9.97997998        1.08973787        0.08589904        0.93498501        0.06101265        0.00715639        0.00068477
       -9.96996997        1.13907229        0.09031408        0.97688136        0.06371524        0.00744592        0.00071570
       -9.95995996        1.18749507        0.09463571        1.01810231        0.06629131        0.00771817        0.00074756
       -9.94994995        1.23460704        0.09883196        1.05830410        0.06871961        0.00797124        0.00078014
       -9.93993994        1.28000408        0.10286994        1.09713721        0.07098020        0.00820350        0.00081323
       -9.92992993        1.32327991        0.10671608        1.13424895        0.07305459        0.00841366        0.00084662
       -9.91991992        1.36402973        0.11033646        1.16928657        0.07492587        0.00860077        0.00088005
       -9.90990991        1.40185477        0.11369719        1.20190126        0.07657887        0.00876416        0.00091329
       -9.89989990        1.43636804        0.11676505        1.23175318        0.07800028        0.00890347        0.00094606
       -9.88988989        1.46720108        0.11950818        1.25851741        0.07917883        0.00901858        0.00097808
       -9.87987988        1.49401167        0.12189681        1.28189070        0.08010545        0.00910965        0.00100905
       -9.86986987        1.51649210        0.12390414        1.30159884        0.08077345        0.00917700        0.00103868
       -9.85985986        1.53437760        0.12550709        1.31740407        0.08117862        0.00922116        0.00106666
       -9.84984985        1.54745434        0.12668710        1.32911230        0.08131945        0.00924280        0.00109270
       -9.83983984        1.55556660        0.12743071        1.33657953        0.08119715        0.00924272        0.00111649
       -9.82982983        1.55862251        0.12773010        1.33971711        0.08081573        0.00922179        0.00113778
       -9.81981982        1.55659799        0.12758329        1.33849541        0.08018200        0.00918099        0.00115631
       -9.80980981        1.54953865        0.12699430        1.33294573        0.07930545        0.00912130        0.00117187
       -9.79979980        1.53755947        0.12597303        1.32316025        0.07819814        0.00904376        0.00118429
       -9.78978979        1.52084235        0.12453495        1.30929009        0.07687445        0.00894942        0.00119344
       -9.77977978        1.49963176        0.12270066        1.29154166        0.07535087        0.00883931        0.00119925
       -9.76976977        1.47422864        0.12049536        1.27017149        0.07364563        0.00871449        0.00120167
       -9.75975976        1.44498317        0.11794818        1.24547986        0.07177839        0.00857599        0.00120074
       -9.74974975        1.41228657        0.11509153        1.21780375        0.06976992        0.00842483        0.00119653
       -9.73973974        1.37656252        0.11196038        1.18750922        0.06764170        0.00826205        0.00118917
       -9.72972973        1.33825849        0.10859166        1.15498370        0.06541562        0.00808871        0.00117881
       -9.71971972        1.29783715        0.10502355        1.12062840        0.06311368        0.00790586        0.00116565
       -9.70970971        1.25576818        0.10129496        1.08485099        0.06075766        0.00771462        0.00114995
       -9.69969970        1.21252053        0.09744487        1.04805859        0.05836893        0.00751616        0.00113197
       -9.68968969        1.16855506        0.09351187        1.01065132        0.05596819        0.00731170        0.00111200
       -9.67967968        1.12431773        0.08953356        0.97301609        0.05357524        0.00710251        0.00109033
       -9.66966967        1.08023321        0.08554607        0.93552102        0.05120886        0.00688995        0.00106730
       -9.65965966        1.03669891        0.08158350        0.89851018        0.04888657        0.00667543        0.00104323
       -9.64964965        0.99407968        0.07767744        0.86229889        0.04662450        0.00646040        0.00101844
       -9.63963964        0.95270300        0.07385645        0.82716971        0.04443724        0.00624634        0.00099326
       -9.62962963        0.91285519        0.07014564        0.79336911        0.04233769        0.00603473        0.00096801
       -9.61961962        0.87477852        0.06656630        0.76110521        0.04033695        0.00582705        0.00094301
       -9.60960961        0.83866980        0.06313562        0.73054668        0.03844423        0.00562471        0.00091855
       -9.59959960        0.80468034        0.05986654        0.70182297        0.03666681        0.00542908        0.00089495
       -9.58958959        0.77291774        0.05676776        0.67502606        0.03501005        0.00524140        0.00087247
       -9.57957958        0.74344939        0.05384393        0.65021382        0.03347742        0.00506282        0.00085139
       -9.56956957        0.71630771        0.05109592        0.62741479        0.03207064        0.00489437        0.00083199
       -9.55955956        0.69149701        0.04852130        0.60663439        0.03078987        0.00473694        0.00081450
       -9.54954955        0.66900164        0.04611497        0.58786223        0.02963394        0.00459130        0.00079919
       -9.53953954        0.64879497        0.04386979        0.57108014        0.02860066        0.00445810        0.00078628
       -9.52952953        0.63084884        0.04177732        0.55627047        0.02768716        0.00433787        0.00077601
       -9.51951952        0.61514284        0.03982860        0.54342426        0.02689027        0.00423109        0.00076862
       -9.50950951        0.60167280        0.03801480        0.53254866        0.02620685        0.00413817        0.00076432
       -9.49949950        0.59045811        0.03632786        0.52367319        0.02563422        0.00405948        0.00076335
       -9.48948949        0.58154726        0.03476099        0.51685447        0.02517045        0.00399542        0.00076593
       -9.47947948        0.57502129        0.03330901        0.51217895        0.02481463        0.00394641        0.00077228
       -9.46946947        0.57099483        0.03196858        0.50976355        0.02456713        0.00391295        0.00078262
       -9.45945946        0.56961470        0.03073823        0.50975403        0.02442966        0.00389561        0.00079716
       -9.44944945        0.57105590        0.02961825        0.51232106        0.02440538        0.00389511        0.00081611
       -9.43943944        0.57551525        0.02861039        0.51765421        0.02449875        0.00391224        0.00083965
       -9.42942943        0.58320280        0.02771753        0.52595390        0.02471543        0.00394798        0.00086797
       -9.41941942        0.59433141        0.02694317        0.53742170        0.02506195        0.00400339        0.00090120
       -9.40940941        0.60910480        0.02629090        0.55224937        0.02554540        0.00407966        0.00093947
       -9.39939940        0.62770455        0.02576385        0.57060689        0.02617293        0.00417803        0.00098286
       -9.38938939        0.65027661        0.02536411        0.59263006        0.02695127        0.00429978        0.00103139
       -9.37937938        0.67691769        0.02509221        0.61840813        0.02788615        0.00444616        0.00108506
       -9.36936937        0.70766234        0.02494665        0.64797189        0.02898174        0.00461831        0.00114376
       -9.35935936        0.74247095        0.02492356        0.68128282        0.03024006        0.00481718        0.00120733
       -9.34934935        0.78121961        0.02501642        0.71822375        0.03166046        0.00504345        0.00127553
       -9.33933934        0.82369212        0.02521595        0.75859163        0.03323912        0.00529740        0.00134802
       -9.32932933        0.86957481        0.02551009        0.80209282        0.03496869        0.00557885        0.00142436
       -9.31931932        0.91845463        0.02588414        0.84834136        0.03683804        0.00588707        0.00150402
       -9.30930931        0.96982085        0.02632111        0.89686063        0.03883209        0.00622065        0.00158637
       -9.29929930        1.02307066        0.02680202        0.94708851        0.04093191        0.00657753        0.00167068
       -9.28928929        1.07751875        0.02730652        0.99838632        0.04311490        0.00695488        0.00175613
       -9.27927928        1.13241082        0.02781342        1.05005128        0.04535516        0.00734915        0.00184180
       -9.26926927        1.18694060        0.02830136        1.10133240        0.04762402        0.00775607        0.00192674
       -9.25925926        1.24027000        0.02874954        1.15144912        0.04989070        0.00817071        0.00200992
       -9.24924925        1.29155160        0.02913833        1.19961226        0.05212313        0.00858759        0.00209029
       -9.23923924        1.33995256        0.02944994        1.24504626        0.05428877        0.00900081        0.00216678
       -9.22922923        1.38467892        0.02966898        1.28701188        0.05635552        0.00940417        0.00223836
       -9.21921922        1.42499915        0.02978293        1.32482820        0.05829261        0.00979139        0.00230402
       -9.20920921        1.46026591        0.02978243        1.35789291        0.06007145        0.01015629        0.00236283
       -9.19919920        1.48993480        0.02966154        1.38569993        0.06166641        0.01049298        0.00241394
       -9.18918919        1.51357934        0.02941778        1.40785347        0.06305544        0.01079604        0.00245661
       -9.17917918        1.53090142        0.02905203        1.42407780        0.06422061        0.01106073        0.00249025
       -9.16916917        1.54173669        0.02856833        1.43422240        0.06514842        0.01128314        0.00251441
       -9.15915916        1.54605499        0.02797357        1.43826235        0.06583002        0.01146027        0.00252878
       -9.14914915        1.54395567        0.02727706        1.43629395        0.06626121        0.01159021        0.00253324
       -9.13913914        1.53565848        0.02649008        1.42852616        0.06644234        0.01167208        0.00252782
       -9.12912913        1.52149056        0.02562532        1.41526837        0.06637801        0.01170613        0.00251273
       -9.11911912        1.50187051        0.02469644        1.39691534        0.06607677        0.01169364        0.00248832
       -9.10910911        1.47729037        0.02371751        1.37393026        0.06555064        0.01163686        0.00245510
       -9.09909910        1.44829671        0.02270259        1.34682682        0.06481467        0.01153894        0.00241370
       -9.08908909        1.41547152        0.02166534        1.31615126        0.06388635        0.01140370        0.00236488
       -9.07907908        1.37941407        0.02061868        1.28246521        0.06278516        0.01123555        0.00230946
       -9.06906907        1.34072418        0.01957454        1.24632993        0.06153206        0.01103929        0.00224836
       -9.05905906        1.29998759        0.01854370        1.20829254        0.06014892        0.01081991        0.00218253
       -9.04904905        1.25776371        0.01753567        1.16887451        0.05865816        0.01058243        0.00211294
       -9.03903904        1.21457579        0.01655867        1.12856259        0.05708224        0.01033173        0.00204056
       -9.02902903        1.17090372        0.01561960        1.08780207        0.05544330        0.01007242        0.00196633
       -9.01901902        1.12717908        0.01472413        1.04699231        0.05376281        0.00980868        0.00189114
       -9.00900901        1.08378237        0.01387675        1.00648441        0.05206118        0.00954420        0.00181583
       -8.99899900        1.04104214        0.01308087        0.96658053        0.05035753        0.00928208        0.00174113
       -8.98898899        0.99923559        0.01233893        0.92753475        0.04866938        0.00902482        0.00166770
       -8.97897898        0.95859064        0.01165252        0.88955522        0.04701250        0.00877430        0.00159610
       -8.96896897        0.91928893        0.01102244        0.85280724        0.04540068        0.00853179        0.00152678
       -8.95895896        0.88146980        0.01044886        0.81741713        0.04384570        0.00829804        0.00146007
       -8.94894895        0.84523482        0.00993134        0.78347669        0.04235725        0.00807331        0.00139623
       -8.93893894        0.81065297        0.00946898        0.75104813        0.04094297        0.00785747        0.00133542
       -8.92892893        0.77776600        0.00906042        0.72016919        0.03960858        0.00765009        0.00127771
       -8.91891892        0.74659410        0.00870394        0.69085844        0.03835802        0.00745057        0.00122312
       -8.90890891        0.71714142        0.00839750        0.66312043        0.03719366        0.00725822        0.00117161
       -8.89889890        0.68940144        0.00813879        0.63695065        0.03611656        0.00707235        0.00112310
       -8.88888889        0.66336186        0.00792523        0.61233999        0.03512678        0.00689235        0.00107750
       -8.87887888        0.63900880        0.00775403        0.58927863        0.03422362        0.00671779        0.00103472
       -8.86886887        0.61633021        0.00762219        0.56775901        0.03340592        0.00654844        0.00099465
       -8.85885886        0.59531824        0.00752652        0.54777795        0.03267226        0.00638430        0.00095722
       -8.84884885        0.57597046        0.00746362        0.52933769        0.03202119        0.00622561        0.00092235
       -8.83883884        0.55828991        0.00742997        0.51244580        0.03145130        0.00607283        0.00089002
       -8.82882883        0.54228405        0.00742182        0.49711407        0.03096131        0.00592665        0.00086020
       -8.81881882        0.52796253        0.00743533        0.48335638        0.03055004        0.00578789        0.00083290
       -8.80880881        0.51533418        0.00746650        0.47118572        0.03021634        0.00565749        0.00080813
       -8.79879880        0.50440315        0.00751123        0.46061062        0.02995896        0.00553641        0.00078592
       -8.78878879        0.49516475        0.00756540        0.45163106        0.02977634        0.00542563        0.00076632
       -8.77877878        0.48760105        0.00762483        0.44423435        0.02966650        0.00532602        0.00074934
       -8.76876877        0.48167660        0.00768544        0.43839103        0.02962677        0.00523835        0.00073502
       -8.75875876        0.47733464        0.00774323        0.43405125        0.02965362        0.00516319        0.00072335
       -8.74874875        0.47449398        0.00779442        0.43114177        0.02974257        0.00510090        0.00071431
       -8.73873874        0.47304686        0.00783547        0.42956387        0.02988801        0.00505163        0.00070787
       -8.72872873        0.47285792        0.00786315        0.42919231        0.03008322        0.00501527        0.00070396
       -8.71871872        0.47376453        0.00787465        0.42987558        0.03032034        0.00499146        0.00070249
       -8.70870871        0.47557852        0.00786756        0.43143749        0.03059053        0.00497960        0.00070334
       -8.69869870        0.47808934        0.00783997        0.43368010        0.03088404        0.00497888        0.00070635
       -8.68868869        0.48106860        0.00779044        0.43638801        0.03119048        0.00498829        0.00071138
       -8.67867868        0.48427594        0.00771808        0.43933390        0.03149908        0.00500665        0.00071823
       -8.66866867        0.48746591        0.00762247        0.44228509        0.03179896        0.00503268        0.00072669
       -8.65865866        0.49039569        0.00750371        0.44501094        0.03207948        0.00506499        0.00073657
       -8.64864865        0.49283330        0.00736236        0.44729065        0.03233050        0.00510215        0.00074764
       -8.63863864        0.49456583        0.00719943        0.44892125        0.03254277        0.00514272        0.00075966
       -8.62862863        0.49540730        0.00701631        0.44972517        0.03270812        0.00518530        0.00077240
       -8.61861862        0.49520582        0.00681479        0.44955715        0.03281975        0.00522852        0.00078562
       -8.60860861        0.49384941        0.00659694        0.44830991        0.03287236        0.00527113        0.00079907
       -8.59859860        0.49127032        0.00636516        0.44591837        0.03286229        0.00531199        0.00081251
       -8.58858859        0.48744741        0.00612205        0.44236205        0.03278755        0.00535005        0.00082571
       -8.57857858        0.48240660        0.00587042        0.43766549        0.03264781        0.00538446        0.00083841
       -8.56856857        0.47621905        0.00561322        0.43189665        0.03244432        0.00541448        0.00085039
       -8.55855856        0.46899750        0.00535352        0.42516328        0.03217975        0.00543953        0.00086142
       -8.54854855        0.46089067        0.00509443        0.41760767        0.03185810        0.00545919        0.00087128
       -8.53853854        0.45207628        0.00483906        0.40939982        0.03148441        0.00547320        0.00087978
       -8.52852853        0.44275308        0.00459050        0.40072974        0.03106464        0.00548144        0.00088675
       -8.51851852        0.43313228        0.00435173        0.39179916        0.03060544        0.00548392        0.00089203
       -8.50850851        0.42342915        0.00412557        0.38281325        0.03011399        0.00548081        0.00089552
       -8.49849850        0.41385501        0.00391467        0.37397294        0.02959782        0.00547242        0.00089716
       -8.48848849        0.40461038        0.00372143        0.36546809        0.02906477        0.00545917        0.00089692
       -8.47847848        0.39587941        0.00354799        0.35747209        0.02852285        0.00544166        0.00089483
       -8.46846847        0.38782601        0.00339619        0.35013801        0.02798023        0.00542059        0.00089098
