#  aims_uuid : F128D8B5-E5F3-407F-ADF6-DC6AC86BB935                                
#  angular momentum projected density of states for species Mo as calculated by FHI-aims 
# The energy reference for this output is the chemical potential, mu =      -5.106688 eV
#      Energy (eV)         total dos     l= 0              l= 1              l= 2              l= 3              l= 4
       -4.89331207        1.00850417        0.03775045        0.12926178        0.82954643        0.01038086        0.00156465
       -4.88330206        1.05383109        0.04286881        0.13772781        0.86063805        0.01093329        0.00166313
       -4.87329205        1.09773878        0.04842434        0.14638812        0.88965700        0.01150735        0.00176197
       -4.86328204        1.13983726        0.05440385        0.15518257        0.91629090        0.01209935        0.00186059
       -4.85327203        1.17976628        0.06078461        0.16404466        0.94027337        0.01270527        0.00195837
       -4.84326202        1.21720039        0.06753384        0.17290193        0.96138923        0.01332074        0.00205465
       -4.83325201        1.25185236        0.07460855        0.18167637        0.97947766        0.01394107        0.00214872
       -4.82324200        1.28347511        0.08195558        0.19028515        0.99443331        0.01456124        0.00223983
       -4.81323199        1.31186244        0.08951204        0.19864150        1.00620571        0.01517597        0.00232722
       -4.80322198        1.33684871        0.09720618        0.20665584        1.01479694        0.01577966        0.00241009
       -4.79321197        1.35830779        0.10495840        0.21423716        1.02025806        0.01636652        0.00248764
       -4.78320196        1.37615162        0.11268283        0.22129466        1.02268443        0.01693062        0.00255908
       -4.77319195        1.39032836        0.12028897        0.22773955        1.02221026        0.01746594        0.00262364
       -4.76318194        1.40082057        0.12768368        0.23348706        1.01900268        0.01796655        0.00268060
       -4.75317193        1.40764326        0.13477332        0.23845846        1.01325544        0.01842672        0.00272931
       -4.74316192        1.41084194        0.14146593        0.24258314        1.00518263        0.01884102        0.00276922
       -4.73315191        1.41049066        0.14767343        0.24580050        0.99501231        0.01920455        0.00279987
       -4.72314190        1.40668994        0.15331376        0.24806172        0.98298050        0.01951302        0.00282093
       -4.71313189        1.39956464        0.15831286        0.24933122        0.96932541        0.01976293        0.00283222
       -4.70312188        1.38926155        0.16260634        0.24958771        0.95428216        0.01995166        0.00283369
       -4.69311187        1.37594698        0.16614104        0.24882496        0.93807801        0.02007755        0.00282542
       -4.68310186        1.35980407        0.16887606        0.24705200        0.92092834        0.02014002        0.00280766
       -4.67309185        1.34103012        0.17078354        0.24429299        0.90303332        0.02013951        0.00278077
       -4.66308184        1.31983394        0.17184906        0.24058663        0.88457548        0.02007753        0.00274524
       -4.65307183        1.29643328        0.17207167        0.23598518        0.86571817        0.01995658        0.00270168
       -4.64306182        1.27105251        0.17146348        0.23055321        0.84660495        0.01978012        0.00265076
       -4.63305181        1.24392058        0.17004906        0.22436601        0.82735986        0.01955241        0.00259325
       -4.62304180        1.21526929        0.16786450        0.21750787        0.80808854        0.01927841        0.00252996
       -4.61303179        1.18533189        0.16495620        0.21007018        0.78888007        0.01896367        0.00246177
       -4.60302178        1.15434191        0.16137952        0.20214946        0.76980925        0.01861413        0.00238954
       -4.59301177        1.12253224        0.15719735        0.19384537        0.75093934        0.01823599        0.00231417
       -4.58300176        1.09013420        0.15247852        0.18525872        0.73232483        0.01783558        0.00223655
       -4.57299175        1.05737665        0.14729622        0.17648955        0.71401417        0.01741916        0.00215755
       -4.56298174        1.02448486        0.14172645        0.16763531        0.69605227        0.01699282        0.00207801
       -4.55297173        0.99167935        0.13584652        0.15878911        0.67848262        0.01656234        0.00199877
       -4.54296172        0.95917435        0.12973359        0.15003825        0.66134886        0.01613306        0.00192059
       -4.53295171        0.92717620        0.12346338        0.14146278        0.64469598        0.01570984        0.00184422
       -4.52294170        0.89588163        0.11710892        0.13313444        0.62857102        0.01529693        0.00177033
       -4.51293169        0.86547610        0.11073950        0.12511574        0.61302335        0.01489794        0.00169957
       -4.50292168        0.83613231        0.10441974        0.11745940        0.59810481        0.01451585        0.00163250
       -4.49291167        0.80800910        0.09820879        0.11020811        0.58386958        0.01415300        0.00156963
       -4.48290166        0.78125093        0.09215965        0.10339454        0.57037424        0.01381107        0.00151143
       -4.47289165        0.75598782        0.08631872        0.09704182        0.55767780        0.01349121        0.00145827
       -4.46288164        0.73233622        0.08072539        0.09116419        0.54584205        0.01319408        0.00141050
       -4.45287163        0.71040041        0.07541189        0.08576806        0.53493212        0.01291993        0.00136840
       -4.44286162        0.69027464        0.07040315        0.08085326        0.52501730        0.01266872        0.00133221
       -4.43285161        0.67204586        0.06571690        0.07641449        0.51617214        0.01244021        0.00130213
       -4.42284160        0.65579678        0.06136386        0.07244288        0.50847761        0.01223408        0.00127834
       -4.41283159        0.64160921        0.05734811        0.06892757        0.50202245        0.01205005        0.00126102
       -4.40282158        0.62956736        0.05366745        0.06585729        0.49690436        0.01188791        0.00125035
       -4.39281157        0.61976103        0.05031407        0.06322171        0.49323109        0.01174763        0.00124653
       -4.38280156        0.61228827        0.04727515        0.06101270        0.49112122        0.01162940        0.00124981
       -4.37279155        0.60725758        0.04453365        0.05922521        0.49070461        0.01153364        0.00126047
       -4.36278154        0.60478922        0.04206911        0.05785794        0.49212225        0.01146103        0.00127890
       -4.35277153        0.60501570        0.03985854        0.05691359        0.49552559        0.01141246        0.00130552
       -4.34276152        0.60808113        0.03787734        0.05639876        0.50107513        0.01138904        0.00134087
       -4.33275151        0.61413944        0.03610011        0.05632359        0.50893819        0.01139198        0.00138556
       -4.32274150        0.62335130        0.03450161        0.05670099        0.51928582        0.01142261        0.00144027
       -4.31273149        0.63587974        0.03305743        0.05754564        0.53228866        0.01148223        0.00150578
       -4.30272148        0.65188440        0.03174481        0.05887273        0.54811189        0.01157208        0.00158290
       -4.29271147        0.67151440        0.03054309        0.06069660        0.56690901        0.01169326        0.00167245
       -4.28270146        0.69490002        0.02943424        0.06302921        0.58881472        0.01184659        0.00177526
       -4.27269145        0.72214328        0.02840309        0.06587861        0.61393687        0.01203261        0.00189210
       -4.26268144        0.75330772        0.02743745        0.06924746        0.64234775        0.01225141        0.00202366
       -4.25267143        0.78840777        0.02652811        0.07313159        0.67407501        0.01250261        0.00217046
       -4.24266142        0.82739817        0.02566864        0.07751883        0.70909263        0.01278525        0.00233282
       -4.23265141        0.87016400        0.02485508        0.08238797        0.74731236        0.01309775        0.00251083
       -4.22264140        0.91651191        0.02408558        0.08770803        0.78857623        0.01343779        0.00270428
       -4.21263139        0.96616334        0.02335987        0.09343785        0.83265070        0.01380234        0.00291259
       -4.20262138        1.01875018        0.02267880        0.09952603        0.87922296        0.01418758        0.00313482
       -4.19261137        1.07381361        0.02204381        0.10591123        0.92789998        0.01458894        0.00336965
       -4.18260136        1.13080642        0.02145645        0.11252284        0.97821067        0.01500113        0.00361533
       -4.17259135        1.18909920        0.02091796        0.11928203        1.02961133        0.01541818        0.00386971
       -4.16258134        1.24799050        0.02042886        0.12610313        1.08149465        0.01583360        0.00413026
       -4.15257133        1.30672059        0.01998874        0.13289530        1.13320195        0.01624046        0.00439414
       -4.14256132        1.36448874        0.01959604        0.13956448        1.18403838        0.01663164        0.00465819
       -4.13255131        1.42047313        0.01924797        0.14601550        1.23329060        0.01699999        0.00491908
       -4.12254130        1.47385268        0.01894049        0.15215431        1.28024604        0.01733854        0.00517330
       -4.11253129        1.52382991        0.01866846        0.15789020        1.32421311        0.01764078        0.00541736
       -4.10252128        1.56965360        0.01842569        0.16313801        1.36454125        0.01790086        0.00564779
       -4.09251127        1.61064039        0.01820524        0.16782016        1.40063991        0.01811379        0.00586129
       -4.08250126        1.64619420        0.01799960        0.17186849        1.43199566        0.01827565        0.00605481
       -4.07249125        1.67582258        0.01780097        0.17522576        1.45818653        0.01838370        0.00622562
       -4.06248124        1.69914942        0.01760155        0.17784693        1.47889303        0.01843650        0.00637141
       -4.05247123        1.71592340        0.01739382        0.17969996        1.49390535        0.01843394        0.00649033
       -4.04246122        1.72602203        0.01717079        0.18076628        1.50312668        0.01837721        0.00658106
       -4.03245121        1.72945120        0.01692626        0.18104091        1.50657249        0.01826875        0.00664279
       -4.02244120        1.72634060        0.01665503        0.18053215        1.50436604        0.01811213        0.00667525
       -4.01243119        1.71693524        0.01635312        0.17926096        1.49673057        0.01791188        0.00667871
       -4.00242118        1.70158376        0.01601788        0.17726007        1.48397857        0.01767330        0.00665395
       -3.99241117        1.68072415        0.01564812        0.17457277        1.46649880        0.01740226        0.00660220
       -3.98240116        1.65486758        0.01524417        0.17125162        1.44474172        0.01710500        0.00652508
       -3.97239115        1.62458102        0.01480782        0.16735686        1.41920391        0.01678784        0.00642458
       -3.96238114        1.59046942        0.01434236        0.16295484        1.39041219        0.01645708        0.00630296
       -3.95237113        1.55315804        0.01385236        0.15811637        1.35890793        0.01611871        0.00616269
       -3.94236112        1.51327542        0.01334356        0.15291504        1.32523214        0.01577833        0.00600635
       -3.93235111        1.47143758        0.01282265        0.14742564        1.28991171        0.01544097        0.00583662
       -3.92234110        1.42823386        0.01229694        0.14172257        1.25344718        0.01511101        0.00565616
       -3.91233109        1.38421464        0.01177415        0.13587846        1.21630232        0.01479211        0.00546759
       -3.90232108        1.33988126        0.01126203        0.12996284        1.17889578        0.01448720        0.00527342
       -3.89231107        1.29567843        0.01076804        0.12404107        1.14159491        0.01419842        0.00507598
       -3.88230106        1.25198906        0.01029913        0.11817336        1.10471192        0.01392721        0.00487744
       -3.87229105        1.20913178        0.00986136        0.11241407        1.06850229        0.01367431        0.00467975
       -3.86228104        1.16736101        0.00945975        0.10681120        1.03316557        0.01343986        0.00448463
       -3.85227103        1.12686942        0.00909809        0.10140610        0.99884822        0.01322346        0.00429354
       -3.84226102        1.08779277        0.00877884        0.09623343        0.96564848        0.01302432        0.00410770
       -3.83225101        1.05021658        0.00850307        0.09132129        0.93362280        0.01284130        0.00392811
       -3.82224100        1.01418435        0.00827053        0.08669156        0.90279363        0.01267310        0.00375553
       -3.81223099        0.97970691        0.00807974        0.08236038        0.87315795        0.01251831        0.00359052
       -3.80222098        0.94677213        0.00792813        0.07833880        0.84469618        0.01237558        0.00343344
       -3.79221097        0.91535471        0.00781223        0.07463345        0.81738087        0.01224365        0.00328450
       -3.78220096        0.88542524        0.00772792        0.07124728        0.79118471        0.01212151        0.00314381
       -3.77219095        0.85695815        0.00767064        0.06818029        0.76608748        0.01200842        0.00301133
       -3.76218094        0.82993808        0.00763562        0.06543017        0.74208139        0.01190394        0.00288697
       -3.75217093        0.80436435        0.00761814        0.06299292        0.71917471        0.01180800        0.00277059
       -3.74216092        0.78025329        0.00761368        0.06086328        0.69739346        0.01172086        0.00266200
       -3.73215091        0.75763855        0.00761811        0.05903507        0.67678126        0.01164309        0.00256102
       -3.72214090        0.73656931        0.00762778        0.05750136        0.65739722        0.01157549        0.00246745
       -3.71213089        0.71710674        0.00763964        0.05625450        0.63931245        0.01151906        0.00238108
       -3.70212088        0.69931911        0.00765122        0.05528608        0.62260521        0.01147486        0.00230174
       -3.69211087        0.68327585        0.00766066        0.05458668        0.60735533        0.01144394        0.00222923
       -3.68210086        0.66904111        0.00766666        0.05414567        0.59363816        0.01142723        0.00216339
       -3.67209085        0.65666737        0.00766841        0.05395089        0.58151865        0.01142539        0.00210403
       -3.66208084        0.64618941        0.00766550        0.05398836        0.57104583        0.01143875        0.00205096
       -3.65207083        0.63761918        0.00765782        0.05424204        0.56224808        0.01146723        0.00200400
       -3.64206082        0.63094179        0.00764544        0.05469359        0.55512960        0.01151023        0.00196293
       -3.63205081        0.62611291        0.00762856        0.05532227        0.54966796        0.01156660        0.00192752
       -3.62204080        0.62305765        0.00760733        0.05610495        0.54581322        0.01163463        0.00189752
       -3.61203079        0.62167101        0.00758184        0.05701616        0.54348827        0.01171208        0.00187266
       -3.60202078        0.62181975        0.00755202        0.05802835        0.54259059        0.01179615        0.00185264
       -3.59201077        0.62334562        0.00751761        0.05911218        0.54299502        0.01188365        0.00183715
       -3.58200076        0.62606959        0.00747811        0.06023695        0.54455764        0.01197102        0.00182587
       -3.57199075        0.62979698        0.00743279        0.06137108        0.54712015        0.01205451        0.00181846
       -3.56198074        0.63432302        0.00738071        0.06248270        0.55051474        0.01213027        0.00181459
       -3.55197073        0.63943861        0.00732074        0.06354027        0.55456912        0.01219455        0.00181392
       -3.54196072        0.64493599        0.00725162        0.06451317        0.55911128        0.01224382        0.00181611
       -3.53195071        0.65061399        0.00717200        0.06537235        0.56397389        0.01227493        0.00182083
       -3.52194070        0.65628261        0.00708052        0.06609094        0.56899813        0.01228523        0.00182777
       -3.51193069        0.66176679        0.00697590        0.06664485        0.57403670        0.01227273        0.00183661
       -3.50192068        0.66690933        0.00685701        0.06701320        0.57895599        0.01223609        0.00184705
       -3.49191067        0.67157274        0.00672291        0.06717885        0.58363744        0.01217476        0.00185877
       -3.48190066        0.67564021        0.00657298        0.06712872        0.58797806        0.01208896        0.00187148
       -3.47189065        0.67901578        0.00640693        0.06685405        0.59189029        0.01197962        0.00188488
       -3.46188064        0.68162389        0.00622488        0.06635061        0.59530133        0.01184841        0.00189866
       -3.45187063        0.68340843        0.00602735        0.06561875        0.59815223        0.01169759        0.00191251
       -3.44186062        0.68433163        0.00581531        0.06466343        0.60039685        0.01152992        0.00192612
       -3.43185061        0.68437302        0.00559017        0.06349412        0.60200100        0.01134857        0.00193917
       -3.42184060        0.68352855        0.00535373        0.06212463        0.60294187        0.01115697        0.00195135
       -3.41183059        0.68181012        0.00510817        0.06057289        0.60320798        0.01095871        0.00196237
       -3.40182058        0.67924565        0.00485600        0.05886068        0.60279963        0.01075739        0.00197196
       -3.39181057        0.67587952        0.00459998        0.05701327        0.60172982        0.01055657        0.00197988
       -3.38180056        0.67177352        0.00434309        0.05505908        0.60002573        0.01035968        0.00198594
       -3.37179055        0.66700798        0.00408843        0.05302929        0.59773030        0.01016995        0.00199000
       -3.36178054        0.66168300        0.00383918        0.05095744        0.59490395        0.00999040        0.00199202
