#  aims_uuid : F128D8B5-E5F3-407F-ADF6-DC6AC86BB935                                
#  angular momentum projected density of states for species S as calculated by FHI-aims 
# The energy reference for this output is the chemical potential, mu =      -5.106688 eV
#      Energy (eV)         total dos     l= 0              l= 1              l= 2              l= 3              l= 4
       -4.89331207        0.93142541        0.07016138        0.80239782        0.05216793        0.00609384        0.00060445
       -4.88330206        0.97579165        0.07341922        0.84032567        0.05501941        0.00639237        0.00063497
       -4.87329205        1.01995123        0.07662767        0.87817059        0.05780196        0.00668398        0.00066702
       -4.86328204        1.06352151        0.07976313        0.91559806        0.06049329        0.00696664        0.00070039
       -4.85327203        1.10611858        0.08280265        0.95227086        0.06307181        0.00723843        0.00073482
       -4.84326202        1.14736227        0.08572418        0.98785378        0.06551674        0.00749752        0.00077006
       -4.83325201        1.18688090        0.08850673        1.02201790        0.06780829        0.00774216        0.00080582
       -4.82324200        1.22431559        0.09113060        1.05444462        0.06992784        0.00797072        0.00084181
       -4.81323199        1.25932440        0.09357742        1.08482951        0.07185809        0.00818166        0.00087771
       -4.80322198        1.29158641        0.09583028        1.11288605        0.07358328        0.00837358        0.00091322
       -4.79321197        1.32080578        0.09787384        1.13834940        0.07508935        0.00854519        0.00094800
       -4.78320196        1.34671587        0.09969438        1.16098018        0.07636422        0.00869536        0.00098174
       -4.77319195        1.36908332        0.10127986        1.18056826        0.07739797        0.00882315        0.00101409
       -4.76318194        1.38771211        0.10262003        1.19693645        0.07818311        0.00892777        0.00104475
       -4.75317193        1.40244727        0.10370644        1.20994398        0.07871477        0.00900866        0.00107341
       -4.74316192        1.41317824        0.10453254        1.21948953        0.07899089        0.00906549        0.00109978
       -4.73315191        1.41984138        0.10509367        1.22551367        0.07901231        0.00909813        0.00112361
       -4.72314190        1.42242173        0.10538710        1.22800041        0.07878283        0.00910674        0.00114465
       -4.71313189        1.42095352        0.10541206        1.22697783        0.07830920        0.00909169        0.00116273
       -4.70312188        1.41551953        0.10516968        1.22251756        0.07760100        0.00905359        0.00117770
       -4.69311187        1.40624924        0.10466302        1.21473306        0.07667045        0.00899327        0.00118945
       -4.68310186        1.39331563        0.10389700        1.20377681        0.07553214        0.00891175        0.00119793
       -4.67309185        1.37693096        0.10287837        1.18983651        0.07420272        0.00881022        0.00120313
       -4.66308184        1.35734166        0.10161564        1.17313035        0.07270054        0.00869003        0.00120510
       -4.65307183        1.33482252        0.10011908        1.15390166        0.07104524        0.00855263        0.00120391
       -4.64306182        1.30967047        0.09840059        1.13241328        0.06925736        0.00839956        0.00119968
       -4.63305181        1.28219828        0.09647370        1.10894162        0.06735795        0.00823243        0.00119258
       -4.62304180        1.25272837        0.09435348        1.08377101        0.06536822        0.00805287        0.00118279
       -4.61303179        1.22158687        0.09205643        1.05718820        0.06330917        0.00786255        0.00117051
       -4.60302178        1.18909829        0.08960040        1.02947739        0.06120137        0.00766315        0.00115598
       -4.59301177        1.15558062        0.08700440        1.00091581        0.05906463        0.00745634        0.00113943
       -4.58300176        1.12134115        0.08428848        0.97176995        0.05691784        0.00724378        0.00112111
       -4.57299175        1.08667292        0.08147345        0.94229233        0.05477877        0.00702711        0.00110126
       -4.56298174        1.05185175        0.07858065        0.91271906        0.05266393        0.00680796        0.00108015
       -4.55297173        1.01713395        0.07563163        0.88326791        0.05058846        0.00658793        0.00105801
       -4.54296172        0.98275459        0.07264788        0.85413705        0.04856599        0.00636857        0.00103511
       -4.53295171        0.94892641        0.06965042        0.82550433        0.04660860        0.00615137        0.00101169
       -4.52294170        0.91583929        0.06665956        0.79752724        0.04472672        0.00593778        0.00098799
       -4.51293169        0.88366044        0.06369450        0.77034338        0.04292916        0.00572915        0.00096425
       -4.50292168        0.85253522        0.06077312        0.74407162        0.04122302        0.00552674        0.00094071
       -4.49291167        0.82258863        0.05791173        0.71881377        0.03961383        0.00533169        0.00091761
       -4.48290166        0.79392752        0.05512490        0.69465690        0.03810551        0.00514503        0.00089518
       -4.47289165        0.76664345        0.05242540        0.67167615        0.03670059        0.00496766        0.00087365
       -4.46288164        0.74081602        0.04982414        0.64993801        0.03540032        0.00480032        0.00085325
       -4.45287163        0.71651677        0.04733025        0.62950381        0.03420486        0.00464364        0.00083421
       -4.44286162        0.69381314        0.04495118        0.61043352        0.03311357        0.00449809        0.00081678
       -4.43285161        0.67277261        0.04269288        0.59278930        0.03212519        0.00436406        0.00080117
       -4.42284160        0.65346652        0.04055998        0.57663892        0.03123817        0.00424181        0.00078764
       -4.41283159        0.63597347        0.03855600        0.56205865        0.03045087        0.00413153        0.00077643
       -4.40282158        0.62038202        0.03668363        0.54913546        0.02976182        0.00403335        0.00076776
       -4.39281157        0.60679246        0.03494485        0.53796838        0.02916995        0.00394740        0.00076189
       -4.38280156        0.59531753        0.03334120        0.52866883        0.02867466        0.00387378        0.00075906
       -4.37279155        0.58608199        0.03187387        0.52135992        0.02827604        0.00381267        0.00075950
       -4.36278154        0.57922090        0.03054378        0.51617461        0.02797480        0.00376426        0.00076344
       -4.35277153        0.57487678        0.02935169        0.51325275        0.02777234        0.00372887        0.00077112
       -4.34276152        0.57319559        0.02829813        0.51273718        0.02767064        0.00370689        0.00078274
       -4.33275151        0.57432172        0.02738334        0.51476889        0.02767214        0.00369885        0.00079850
       -4.32274150        0.57839212        0.02660720        0.51948143        0.02777956        0.00370538        0.00081855
       -4.31273149        0.58552982        0.02596904        0.52699480        0.02799572        0.00372721        0.00084304
       -4.30272148        0.59583707        0.02546751        0.53740903        0.02832326        0.00376519        0.00087207
       -4.29271147        0.60938821        0.02510035        0.55079756        0.02876440        0.00382022        0.00090569
       -4.28270146        0.62622278        0.02486421        0.56720081        0.02932062        0.00389322        0.00094391
       -4.27269145        0.64633885        0.02475451        0.58662010        0.02999245        0.00398511        0.00098669
       -4.26268144        0.66968706        0.02476523        0.60901211        0.03077909        0.00409672        0.00103391
       -4.25267143        0.69616548        0.02488886        0.63428426        0.03167823        0.00422875        0.00108539
       -4.24266142        0.72561562        0.02511626        0.66229105        0.03268575        0.00438169        0.00114086
       -4.23265141        0.75781977        0.02543672        0.69283174        0.03379554        0.00455576        0.00120001
       -4.22264140        0.79250002        0.02583796        0.72564943        0.03499934        0.00475088        0.00126241
       -4.21263139        0.82931883        0.02630627        0.76043182        0.03628664        0.00496653        0.00132758
       -4.20262138        0.86788171        0.02682671        0.79681362        0.03764465        0.00520180        0.00139494
       -4.19261137        0.90774162        0.02738329        0.83438082        0.03905837        0.00545528        0.00146386
       -4.18260136        0.94840552        0.02795931        0.87267671        0.04051077        0.00572510        0.00153364
       -4.17259135        0.98934262        0.02853769        0.91120957        0.04198295        0.00600889        0.00160352
       -4.16258134        1.02999443        0.02910131        0.94946201        0.04345457        0.00630382        0.00167271
       -4.15257133        1.06978620        0.02963339        0.98690156        0.04490421        0.00660665        0.00174040
       -4.14256132        1.10813958        0.03011789        1.02299230        0.04630989        0.00691376        0.00180575
       -4.13255131        1.14448585        0.03053985        1.05720721        0.04764959        0.00722126        0.00186794
       -4.12254130        1.17827957        0.03088574        1.08904069        0.04890190        0.00752505        0.00192620
       -4.11253129        1.20901200        0.03114377        1.11802097        0.05004657        0.00782093        0.00197976
       -4.10252128        1.23622375        0.03130411        1.14372186        0.05106510        0.00810474        0.00202795
       -4.09251127        1.25951639        0.03135913        1.16577339        0.05194133        0.00837239        0.00207015
       -4.08250126        1.27856238        0.03130348        1.18387112        0.05266189        0.00862004        0.00210585
       -4.07249125        1.29311314        0.03113418        1.19778350        0.05321662        0.00884420        0.00213464
       -4.06248124        1.30300479        0.03085062        1.20735731        0.05359890        0.00904175        0.00215621
       -4.05247123        1.30816159        0.03045452        1.21252082        0.05380578        0.00921011        0.00217036
       -4.04246122        1.30859678        0.02994978        1.21328459        0.05383814        0.00934725        0.00217701
       -4.03245121        1.30441097        0.02934233        1.20974010        0.05370058        0.00945175        0.00217621
       -4.02244120        1.29578820        0.02863991        1.20205599        0.05340130        0.00952287        0.00216812
       -4.01243119        1.28298967        0.02785189        1.19047247        0.05295182        0.00956049        0.00215300
       -4.00242118        1.26634571        0.02698890        1.17529376        0.05236665        0.00956519        0.00213121
       -3.99241117        1.24624605        0.02606265        1.15687918        0.05166281        0.00953819        0.00210322
       -3.98240116        1.22312881        0.02508557        1.13563297        0.05085939        0.00948130        0.00206958
       -3.97239115        1.19746875        0.02407056        1.11199338        0.04997701        0.00939691        0.00203089
       -3.96238114        1.16976488        0.02303067        1.08642127        0.04903719        0.00928791        0.00198784
       -3.95237113        1.14052810        0.02197885        1.05938864        0.04806189        0.00915759        0.00194114
       -3.94236112        1.11026901        0.02092769        1.03136736        0.04707284        0.00900956        0.00189155
       -3.93235111        1.07948635        0.01988916        1.00281858        0.04609108        0.00884770        0.00183983
       -3.92234110        1.04865641        0.01887445        0.97418285        0.04513641        0.00867596        0.00178674
       -3.91233109        1.01822352        0.01789371        0.94587146        0.04422695        0.00849837        0.00173302
       -3.90232108        0.98859194        0.01695599        0.91825900        0.04337873        0.00831883        0.00167939
       -3.89231107        0.96011943        0.01606906        0.89167742        0.04260538        0.00814105        0.00162651
       -3.88230106        0.93311226        0.01523934        0.86641162        0.04191784        0.00796848        0.00157497
       -3.87229105        0.90782218        0.01447191        0.84269659        0.04132421        0.00780415        0.00152531
       -3.86228104        0.88444487        0.01377045        0.82071615        0.04082963        0.00765068        0.00147796
       -3.85227103        0.86312014        0.01313727        0.80060316        0.04043628        0.00751016        0.00143327
       -3.84226102        0.84393359        0.01257342        0.78244107        0.04014346        0.00738414        0.00139150
       -3.83225101        0.82691951        0.01207875        0.76626664        0.03994770        0.00727362        0.00135280
       -3.82224100        0.81206497        0.01165204        0.75207361        0.03984304        0.00717903        0.00131725
       -3.81223099        0.79931463        0.01129110        0.73981715        0.03982129        0.00710027        0.00128483
       -3.80222098        0.78857630        0.01099298        0.72941877        0.03987235        0.00703677        0.00125543
       -3.79221097        0.77972665        0.01075408        0.72077151        0.03998465        0.00698751        0.00122889
       -3.78220096        0.77261731        0.01057035        0.71374527        0.04014556        0.00695113        0.00120500
       -3.77219095        0.76708067        0.01043739        0.70819199        0.04034179        0.00692599        0.00118350
       -3.76218094        0.76293572        0.01035063        0.70395078        0.04055992        0.00691029        0.00116410
       -3.75217093        0.75999349        0.01030546        0.70085264        0.04078674        0.00690212        0.00114651
       -3.74216092        0.75806215        0.01029734        0.69872500        0.04100977        0.00689960        0.00113044
       -3.73215091        0.75695181        0.01032186        0.69739587        0.04121755        0.00690091        0.00111561
       -3.72214090        0.75647883        0.01037486        0.69669772        0.04140008        0.00690441        0.00110177
       -3.71213089        0.75646979        0.01045242        0.69647102        0.04154899        0.00690866        0.00108869
       -3.70212088        0.75676497        0.01055092        0.69656745        0.04165784        0.00691254        0.00107622
       -3.69211087        0.75722138        0.01066703        0.69685272        0.04172225        0.00691517        0.00106420
       -3.68210086        0.75771522        0.01079769        0.69720898        0.04173994        0.00691604        0.00105257
       -3.67209085        0.75814369        0.01094008        0.69753667        0.04171073        0.00691493        0.00104128
       -3.66208084        0.75842615        0.01109155        0.69775583        0.04163649        0.00691194        0.00103034
       -3.65207083        0.75850437        0.01124959        0.69780665        0.04152092        0.00690742        0.00101979
       -3.64206082        0.75834201        0.01141179        0.69764919        0.04136936        0.00690197        0.00100971
       -3.63205081        0.75792311        0.01157572        0.69726238        0.04118846        0.00689636        0.00100020
       -3.62204080        0.75724974        0.01173893        0.69664208        0.04098589        0.00689145        0.00099138
       -3.61203079        0.75633884        0.01189891        0.69579843        0.04076991        0.00688819        0.00098339
       -3.60202078        0.75521838        0.01205306        0.69475249        0.04054902        0.00688748        0.00097634
       -3.59201077        0.75392307        0.01219864        0.69353241        0.04033150        0.00689017        0.00097034
       -3.58200076        0.75248980        0.01233289        0.69216936        0.04012509        0.00689696        0.00096550
       -3.57199075        0.75095315        0.01245295        0.69069340        0.03993655        0.00690837        0.00096188
       -3.56198074        0.74934124        0.01255603        0.68912960        0.03977141        0.00692468        0.00095952
       -3.55197073        0.74767207        0.01263939        0.68749470        0.03963362        0.00694594        0.00095841
       -3.54196072        0.74595076        0.01270049        0.68579444        0.03952538        0.00697191        0.00095853
       -3.53195071        0.74416770        0.01273710        0.68402176        0.03944697        0.00700207        0.00095980
       -3.52194070        0.74229783        0.01274734        0.68215603        0.03939672        0.00703565        0.00096209
       -3.51193069        0.74030094        0.01272982        0.68016329        0.03937096        0.00707161        0.00096526
       -3.50192068        0.73812317        0.01268373        0.67799745        0.03936417        0.00710872        0.00096912
       -3.49191067        0.73569934        0.01260885        0.67560242        0.03936909        0.00714553        0.00097346
       -3.48190066        0.73295622        0.01250565        0.67291499        0.03937701        0.00718051        0.00097806
       -3.47189065        0.72981632        0.01237528        0.66986827        0.03937806        0.00721203        0.00098268
       -3.46188064        0.72620214        0.01221953        0.66639548        0.03936162        0.00723844        0.00098708
       -3.45187063        0.72204060        0.01204079        0.66243396        0.03931669        0.00725815        0.00099101
       -3.44186062        0.71726743        0.01184202        0.65792906        0.03923243        0.00726967        0.00099424
       -3.43185061        0.71183139        0.01162659        0.65283793        0.03909863        0.00727167        0.00099657
       -3.42184060        0.70569811        0.01139820        0.64713281        0.03890621        0.00726306        0.00099782
       -3.41183059        0.69885334        0.01116076        0.64080397        0.03864773        0.00724304        0.00099785
       -3.40182058        0.69130568        0.01091826        0.63386193        0.03831785        0.00721110        0.00099654
       -3.39181057        0.68308854        0.01067468        0.62633915        0.03791372        0.00716715        0.00099384
       -3.38180056        0.67426130        0.01043386        0.61829090        0.03743536        0.00711146        0.00098973
       -3.37179055        0.66490965        0.01019946        0.60979541        0.03688579        0.00704474        0.00098425
       -3.36178054        0.65514503        0.00997486        0.60095331        0.03627126        0.00696810        0.00097751
