#  aims_uuid : F128D8B5-E5F3-407F-ADF6-DC6AC86BB935                                
#  angular momentum projected density of states for species S as calculated by FHI-aims 
# The energy reference for this output is the vacuum level =       0.000000 eV
#      Energy (eV)         total dos     l= 0              l= 1              l= 2              l= 3              l= 4
      -10.00000000        0.90982148        0.07103606        0.78197637        0.05025332        0.00594303        0.00061270
       -9.98998999        0.95926547        0.07593474        0.82342702        0.05299684        0.00626955        0.00063733
       -9.97997998        1.00879252        0.08084301        0.86499465        0.05570016        0.00659125        0.00066345
       -9.96996997        1.05804042        0.08572575        0.90637651        0.05834147        0.00690574        0.00069095
       -9.95995996        1.10663905        0.09054672        0.94726278        0.06089912        0.00721071        0.00071971
       -9.94994995        1.15421274        0.09526883        0.98733863        0.06335178        0.00750391        0.00074958
       -9.93993994        1.20038260        0.09985433        1.02628604        0.06567864        0.00778320        0.00078039
       -9.92992993        1.24476867        0.10426515        1.06378550        0.06785955        0.00804655        0.00081192
       -9.91991992        1.28699241        0.10846321        1.09951790        0.06987530        0.00829205        0.00084395
       -9.90990991        1.32667968        0.11241089        1.13316689        0.07170777        0.00851790        0.00087623
       -9.89989990        1.36346449        0.11607150        1.16442179        0.07334026        0.00872249        0.00090845
       -9.88988989        1.39699349        0.11940990        1.19298122        0.07475772        0.00890436        0.00094030
       -9.87987988        1.42693154        0.12239316        1.21855762        0.07594709        0.00906223        0.00097144
       -9.86986987        1.45296783        0.12499125        1.24088241        0.07689759        0.00919507        0.00100151
       -9.85985986        1.47482277        0.12717777        1.25971177        0.07760101        0.00930208        0.00103014
       -9.84984985        1.49225501        0.12893060        1.27483276        0.07805196        0.00938273        0.00105695
       -9.83983984        1.50506844        0.13023256        1.28606945        0.07824807        0.00943677        0.00108159
       -9.82982983        1.51311859        0.13107182        1.29328871        0.07819009        0.00946426        0.00110370
       -9.81981982        1.51631818        0.13144234        1.29640536        0.07788195        0.00946554        0.00112298
       -9.80980981        1.51464138        0.13134398        1.29538631        0.07733069        0.00944124        0.00113915
       -9.79979980        1.50812649        0.13078251        1.29025342        0.07654629        0.00939228        0.00115200
       -9.78978979        1.49687692        0.12976940        1.28108491        0.07554145        0.00931982        0.00116134
       -9.77977978        1.48106032        0.12832149        1.26801520        0.07433130        0.00922523        0.00116710
       -9.76976977        1.46090593        0.12646045        1.25123317        0.07293300        0.00911008        0.00116923
       -9.75975976        1.43670027        0.12421214        1.23097892        0.07136536        0.00897607        0.00116778
       -9.74974975        1.40878131        0.12160594        1.20753907        0.06964845        0.00882501        0.00116285
       -9.73973974        1.37753143        0.11867396        1.18124093        0.06780315        0.00865877        0.00115462
       -9.72972973        1.34336936        0.11545035        1.15244559        0.06585081        0.00847928        0.00114332
       -9.71971972        1.30674149        0.11197059        1.12154031        0.06381289        0.00828845        0.00112924
       -9.70970971        1.26811267        0.10827080        1.08893033        0.06171063        0.00808819        0.00111272
       -9.69969970        1.22795692        0.10438724        1.05503043        0.05956476        0.00788037        0.00109410
       -9.68968969        1.18674810        0.10035578        1.02025637        0.05739533        0.00766683        0.00107380
       -9.67967968        1.14495098        0.09621151        0.98501652        0.05522140        0.00744935        0.00105219
       -9.66966967        1.10301267        0.09198845        0.94970391        0.05306098        0.00722963        0.00102970
       -9.65965966        1.06135482        0.08771925        0.91468876        0.05093078        0.00700933        0.00100671
       -9.64964965        1.02036672        0.08343503        0.88031195        0.04884613        0.00679002        0.00098359
       -9.63963964        0.98039937        0.07916516        0.84687946        0.04682084        0.00657320        0.00096072
       -9.62962963        0.94176104        0.07493719        0.81465808        0.04486711        0.00636026        0.00093839
       -9.61961962        0.90471407        0.07077665        0.78387253        0.04299547        0.00615250        0.00091691
       -9.60960961        0.86947346        0.06670699        0.75470413        0.04121471        0.00595111        0.00089653
       -9.59959960        0.83620710        0.06274947        0.72729117        0.03953185        0.00575717        0.00087744
       -9.58958959        0.80503768        0.05892308        0.70173090        0.03795224        0.00557161        0.00085985
       -9.57957958        0.77604641        0.05524449        0.67808323        0.03647955        0.00539525        0.00084389
       -9.56956957        0.74927822        0.05172803        0.65637579        0.03511595        0.00522876        0.00082968
       -9.55955956        0.72474824        0.04838569        0.63661028        0.03386222        0.00507271        0.00081734
       -9.54954955        0.70244944        0.04522717        0.61876976        0.03271802        0.00492753        0.00080696
       -9.53953954        0.68236071        0.04226000        0.60282646        0.03168209        0.00479355        0.00079862
       -9.52952953        0.66445530        0.03948964        0.58874967        0.03075253        0.00467102        0.00079243
       -9.51951952        0.64870890        0.03691970        0.57651346        0.02992711        0.00456014        0.00078849
       -9.50950951        0.63510712        0.03455206        0.56610354        0.02920352        0.00446107        0.00078693
       -9.49949950        0.62365187        0.03238717        0.55752317        0.02857968        0.00437397        0.00078788
       -9.48948949        0.61436629        0.03042418        0.55079758        0.02805399        0.00429903        0.00079151
       -9.47947948        0.60729809        0.02866122        0.54597685        0.02762552        0.00423650        0.00079799
       -9.46946947        0.60252101        0.02709552        0.54313702        0.02729419        0.00418674        0.00080753
       -9.45945946        0.60013444        0.02572358        0.54237943        0.02706089        0.00415021        0.00082034
       -9.44944945        0.60026118        0.02454130        0.54382824        0.02692749        0.00412750        0.00083664
       -9.43943944        0.60304335        0.02354402        0.54762647        0.02689683        0.00411938        0.00085665
       -9.42942943        0.60863683        0.02272654        0.55393036        0.02697260        0.00412674        0.00088059
       -9.41941942        0.61720420        0.02208308        0.56290263        0.02715918        0.00415067        0.00090864
       -9.40940941        0.62890652        0.02160727        0.57470457        0.02746138        0.00419233        0.00094097
       -9.39939940        0.64389427        0.02129201        0.58948741        0.02788410        0.00425304        0.00097771
       -9.38938939        0.66229751        0.02112939        0.60738308        0.02843200        0.00433413        0.00101892
       -9.37937938        0.68421587        0.02111054        0.62849468        0.02910905        0.00443696        0.00106464
       -9.36936937        0.70970825        0.02122558        0.65288692        0.02991811        0.00456282        0.00111481
       -9.35935936        0.73878300        0.02146351        0.68057685        0.03086049        0.00471284        0.00116931
       -9.34934935        0.77138855        0.02181212        0.71152511        0.03193550        0.00488792        0.00122791
       -9.33933934        0.80740522        0.02225802        0.74562818        0.03314005        0.00508864        0.00129033
       -9.32932933        0.84663832        0.02278666        0.78271197        0.03446837        0.00531517        0.00135616
       -9.31931932        0.88881329        0.02338240        0.82252710        0.03591168        0.00556719        0.00142492
       -9.30930931        0.93357304        0.02402870        0.86474639        0.03745813        0.00584379        0.00149604
       -9.29929930        0.98047815        0.02470825        0.90896487        0.03909272        0.00614347        0.00156884
       -9.28928929        1.02901007        0.02540329        0.95470272        0.04079746        0.00646403        0.00164258
       -9.27927928        1.07857776        0.02609587        1.00141123        0.04255157        0.00680265        0.00171644
       -9.26926927        1.12852760        0.02676823        1.04848208        0.04433193        0.00715580        0.00178956
       -9.25925926        1.17815676        0.02740313        1.09525970        0.04611352        0.00751937        0.00186104
       -9.24924925        1.22672946        0.02798424        1.14105646        0.04787009        0.00788870        0.00192996
       -9.23923924        1.27349583        0.02849652        1.18517034        0.04957486        0.00825871        0.00199540
       -9.22922923        1.31771253        0.02892658        1.22690424        0.05120123        0.00862398        0.00205649
       -9.21921922        1.35866424        0.02926303        1.26558629        0.05272358        0.00897894        0.00211240
       -9.20920921        1.39568518        0.02949668        1.30059007        0.05411806        0.00931801        0.00216236
       -9.19919920        1.42817940        0.02962083        1.33135385        0.05536323        0.00963576        0.00220573
       -9.18918919        1.45563900        0.02963133        1.35739788        0.05644075        0.00992708        0.00224196
       -9.17917918        1.47765925        0.02952670        1.37833870        0.05733586        0.01018737        0.00227062
       -9.16916917        1.49394986        0.02930803        1.39389998        0.05803779        0.01041263        0.00229143
       -9.15915916        1.50434188        0.02897891        1.40391912        0.05853998        0.01059962        0.00230426
       -9.14914915        1.50878993        0.02854519        1.40834947        0.05884020        0.01074597        0.00230910
       -9.13913914        1.50736974        0.02801476        1.40725822        0.05894048        0.01085019        0.00230609
       -9.12912913        1.50027136        0.02739719        1.40081997        0.05884690        0.01091178        0.00229552
       -9.11911912        1.48778835        0.02670340        1.38930674        0.05856929        0.01093114        0.00227777
       -9.10910911        1.47030394        0.02594528        1.37307494        0.05812074        0.01090963        0.00225335
       -9.09909910        1.44827475        0.02513527        1.35255011        0.05751711        0.01084942        0.00222284
       -9.08908909        1.42221314        0.02428607        1.32821035        0.05677641        0.01075342        0.00218690
       -9.07907908        1.39266901        0.02341020        1.30056923        0.05591817        0.01062517        0.00214623
       -9.06906907        1.36021198        0.02251981        1.27015913        0.05496278        0.01046870        0.00210158
       -9.05905906        1.32541465        0.02162631        1.23751551        0.05393082        0.01028833        0.00205367
       -9.04904905        1.28883746        0.02074026        1.20316287        0.05284249        0.01008859        0.00200326
       -9.03903904        1.25101578        0.01987116        1.16760263        0.05171697        0.00987400        0.00195103
       -9.02902903        1.21244924        0.01902735        1.13130331        0.05057199        0.00964893        0.00189766
       -9.01901902        1.17359362        0.01821600        1.09469301        0.04942335        0.00941751        0.00184375
       -9.00900901        1.13485518        0.01744302        1.05815423        0.04828463        0.00918346        0.00178983
       -8.99899900        1.09658733        0.01671311        1.02202080        0.04716698        0.00895005        0.00173637
       -8.98898899        1.05908942        0.01602980        0.98657685        0.04607901        0.00872000        0.00168376
       -8.97897898        1.02260747        0.01539548        0.95205745        0.04502677        0.00849546        0.00163230
       -8.96896897        0.98733644        0.01481150        0.91865076        0.04401395        0.00827802        0.00158222
       -8.95895896        0.95342396        0.01427823        0.88650133        0.04304203        0.00806870        0.00153366
       -8.94894895        0.92097496        0.01379515        0.85571437        0.04211066        0.00786806        0.00148672
       -8.93893894        0.89005719        0.01336094        0.82636060        0.04121803        0.00767619        0.00144142
       -8.92892893        0.86070718        0.01297361        0.79848167        0.04036132        0.00749285        0.00139773
       -8.91891892        0.83293645        0.01263055        0.77209557        0.03953714        0.00731755        0.00135563
       -8.90890891        0.80673763        0.01232868        0.74720219        0.03874209        0.00714965        0.00131502
       -8.89889890        0.78209038        0.01206454        0.72378846        0.03797311        0.00698845        0.00127582
       -8.88888889        0.75896668        0.01183441        0.70183310        0.03722790        0.00683329        0.00123797
       -8.87887888        0.73733545        0.01163444        0.68131072        0.03650527        0.00668362        0.00120140
       -8.86886887        0.71716624        0.01146072        0.66219510        0.03580529        0.00653906        0.00116606
       -8.85885886        0.69843181        0.01130943        0.64446155        0.03512946        0.00639944        0.00113194
       -8.84884885        0.68110972        0.01117691        0.62808830        0.03448067        0.00626480        0.00109904
       -8.83883884        0.66518263        0.01105976        0.61305690        0.03386312        0.00613545        0.00106740
       -8.82882883        0.65063766        0.01095491        0.59935171        0.03328208        0.00601187        0.00103709
       -8.81881882        0.63746468        0.01085965        0.58695844        0.03274366        0.00589473        0.00100820
       -8.80880881        0.62565395        0.01077169        0.57586220        0.03225441        0.00578483        0.00098082
       -8.79879880        0.61519310        0.01068914        0.56604492        0.03182096        0.00568302        0.00095506
       -8.78878879        0.60606395        0.01061049        0.55748260        0.03144964        0.00559019        0.00093103
       -8.77877878        0.59823925        0.01053459        0.55014261        0.03114607        0.00550715        0.00090883
       -8.76876877        0.59167973        0.01046055        0.54398116        0.03091484        0.00543463        0.00088855
       -8.75875876        0.58633169        0.01038771        0.53894134        0.03075918        0.00537320        0.00087026
       -8.74874875        0.58212532        0.01031551        0.53495180        0.03068079        0.00532323        0.00085399
       -8.73873874        0.57897391        0.01024341        0.53192623        0.03067962        0.00528489        0.00083976
       -8.72872873        0.57677406        0.01017081        0.52976376        0.03075385        0.00525809        0.00082755
       -8.71871872        0.57540685        0.01009696        0.52835020        0.03089984        0.00524255        0.00081731
       -8.70870871        0.57474001        0.01002089        0.52756020        0.03111225        0.00523770        0.00080897
       -8.69869870        0.57463088        0.00994141        0.52726009        0.03138415        0.00524282        0.00080242
       -8.68868869        0.57492994        0.00985704        0.52731121        0.03170722        0.00525695        0.00079754
       -8.67867868        0.57548490        0.00976606        0.52757370        0.03207196        0.00527900        0.00079418
       -8.66866867        0.57614478        0.00966658        0.52791029        0.03246799        0.00530774        0.00079218
       -8.65865866        0.57676400        0.00955656        0.52818992        0.03288426        0.00534188        0.00079139
       -8.64864865        0.57720607        0.00943393        0.52829110        0.03330937        0.00538005        0.00079161
       -8.63863864        0.57734675        0.00929674        0.52810462        0.03373184        0.00542088        0.00079268
       -8.62862863        0.57707648        0.00914322        0.52753553        0.03414031        0.00546300        0.00079442
       -8.61861862        0.57630203        0.00897195        0.52650450        0.03452384        0.00550509        0.00079666
       -8.60860861        0.57494733        0.00878193        0.52494818        0.03487207        0.00554590        0.00079924
       -8.59859860        0.57295345        0.00857273        0.52281903        0.03517541        0.00558428        0.00080200
       -8.58858859        0.57027802        0.00834449        0.52008439        0.03542519        0.00561914        0.00080481
       -8.57857858        0.56689408        0.00809801        0.51672523        0.03561376        0.00564955        0.00080751
       -8.56856857        0.56278866        0.00783472        0.51273459        0.03573465        0.00567469        0.00081000
       -8.55855856        0.55796128        0.00755668        0.50811601        0.03578259        0.00569385        0.00081215
       -8.54854855        0.55242255        0.00726647        0.50288213        0.03575361        0.00570648        0.00081386
       -8.53853854        0.54619311        0.00696716        0.49705365        0.03564510        0.00571216        0.00081504
       -8.52852853        0.53930293        0.00666214        0.49065869        0.03545588        0.00571061        0.00081561
       -8.51851852        0.53179125        0.00635505        0.48373273        0.03518624        0.00570172        0.00081551
       -8.50850851        0.52370686        0.00604961        0.47631899        0.03483801        0.00568555        0.00081470
       -8.49849850        0.51510894        0.00574953        0.46846933        0.03441463        0.00566229        0.00081316
       -8.48848849        0.50606820        0.00545838        0.46024539        0.03392117        0.00563235        0.00081091
       -8.47847848        0.49666812        0.00517952        0.45171991        0.03336439        0.00559632        0.00080798
       -8.46846847        0.48700619        0.00491605        0.44297796        0.03275276        0.00555498        0.00080445
