#  aims_uuid : F128D8B5-E5F3-407F-ADF6-DC6AC86BB935                                
#  angular momentum projected density of states for species Mo as calculated by FHI-aims 
# The energy reference for this output is the chemical potential, mu =      -5.106688 eV
#      Energy (eV)         total dos     l= 0              l= 1              l= 2              l= 3              l= 4
       -4.89331207        0.95550790        0.06603269        0.10350778        0.77545000        0.00921001        0.00130742
       -4.88330206        0.99422507        0.07199196        0.10975570        0.80149471        0.00961459        0.00136811
       -4.87329205        1.03158531        0.07807853        0.11615420        0.82589480        0.01002871        0.00142908
       -4.86328204        1.06725215        0.08423433        0.12265145        0.84842675        0.01044973        0.00148989
       -4.85327203        1.10091192        0.09039659        0.12919214        0.86889799        0.01087505        0.00155016
       -4.84326202        1.13227825        0.09649931        0.13571833        0.88714902        0.01130211        0.00160948
       -4.83325201        1.16109557        0.10247492        0.14217042        0.90305431        0.01172844        0.00166749
       -4.82324200        1.18714184        0.10825625        0.14848806        0.91652210        0.01215162        0.00172381
       -4.81323199        1.21023050        0.11377843        0.15461131        0.92749338        0.01256928        0.00177811
       -4.80322198        1.23021193        0.11898101        0.16048163        0.93594016        0.01297907        0.00183006
       -4.79321197        1.24697441        0.12380987        0.16604309        0.94186344        0.01337863        0.00187939
       -4.78320196        1.26044471        0.12821901        0.17124344        0.94529089        0.01376556        0.00192580
       -4.77319195        1.27058835        0.13217211        0.17603519        0.94627457        0.01413741        0.00196907
       -4.76318194        1.27740938        0.13564357        0.18037653        0.94488861        0.01449168        0.00200899
       -4.75317193        1.28094975        0.13861928        0.18423219        0.94122710        0.01482581        0.00204536
       -4.74316192        1.28128803        0.14109673        0.18757404        0.93540198        0.01513723        0.00207805
       -4.73315191        1.27853754        0.14308464        0.19038147        0.92754111        0.01542337        0.00210695
       -4.72314190        1.27284360        0.14460203        0.19264152        0.91778634        0.01568173        0.00213198
       -4.71313189        1.26438020        0.14567682        0.19434876        0.90629154        0.01590994        0.00215314
       -4.70312188        1.25334587        0.14634403        0.19550491        0.89322071        0.01610581        0.00217042
       -4.69311187        1.23995897        0.14664353        0.19611819        0.87874595        0.01626740        0.00218390
       -4.68310186        1.22445269        0.14661782        0.19620259        0.86304548        0.01639311        0.00219368
       -4.67309185        1.20706980        0.14630957        0.19577695        0.84630167        0.01648171        0.00219991
       -4.66308184        1.18805761        0.14575936        0.19486404        0.82869904        0.01653238        0.00220279
       -4.65307183        1.16766321        0.14500368        0.19348966        0.81042254        0.01654479        0.00220253
       -4.64306182        1.14612941        0.14407327        0.19168181        0.79165581        0.01651911        0.00219941
       -4.63305181        1.12369132        0.14299191        0.18946999        0.77257970        0.01645601        0.00219372
       -4.62304180        1.10057384        0.14177578        0.18688471        0.75337091        0.01635668        0.00218576
       -4.61303179        1.07698992        0.14043337        0.18395706        0.73420079        0.01622283        0.00217587
       -4.60302178        1.05313959        0.13896588        0.18071855        0.71523415        0.01605664        0.00216438
       -4.59301177        1.02920954        0.13736816        0.17720096        0.69662806        0.01586073        0.00215164
       -4.58300176        1.00537308        0.13563001        0.17343637        0.67853061        0.01563812        0.00213798
       -4.57299175        0.98179024        0.13373783        0.16945711        0.66107943        0.01539217        0.00212371
       -4.56298174        0.95860785        0.13167629        0.16529577        0.64440017        0.01512649        0.00210912
       -4.55297173        0.93595942        0.12943025        0.16098512        0.62860469        0.01484487        0.00209450
       -4.54296172        0.91396478        0.12698639        0.15655788        0.61378927        0.01455118        0.00208005
       -4.53295171        0.89272944        0.12433480        0.15204651        0.60003284        0.01424930        0.00206599
       -4.52294170        0.87234382        0.12147019        0.14748281        0.58739540        0.01394298        0.00205244
       -4.51293169        0.85288251        0.11839280        0.14289745        0.57591692        0.01363582        0.00203953
       -4.50292168        0.83440368        0.11510894        0.13831960        0.56561673        0.01333111        0.00202731
       -4.49291167        0.81694899        0.11163111        0.13377642        0.55649382        0.01303183        0.00201580
       -4.48290166        0.80054412        0.10797781        0.12929278        0.54852795        0.01274058        0.00200501
       -4.47289165        0.78520015        0.10417290        0.12489098        0.54168182        0.01245953        0.00199491
       -4.46288164        0.77091572        0.10024487        0.12059079        0.53590415        0.01219045        0.00198547
       -4.45287163        0.75768018        0.09622567        0.11640953        0.53113362        0.01193468        0.00197667
       -4.44286162        0.74547740        0.09214963        0.11236246        0.52730358        0.01169323        0.00196851
       -4.43285161        0.73429013        0.08805214        0.10846324        0.52434699        0.01146677        0.00196099
       -4.42284160        0.72410461        0.08396838        0.10472463        0.52220165        0.01125574        0.00195421
       -4.41283159        0.71491515        0.07993220        0.10115924        0.52081501        0.01106043        0.00194826
       -4.40282158        0.70672818        0.07597498        0.09778023        0.52014859        0.01088103        0.00194335
       -4.39281157        0.69956558        0.07212477        0.09460205        0.52018132        0.01071773        0.00193970
       -4.38280156        0.69346705        0.06840560        0.09164102        0.52091200        0.01057080        0.00193763
       -4.37279155        0.68849107        0.06483697        0.08891569        0.52236029        0.01044063        0.00193749
       -4.36278154        0.68471470        0.06143363        0.08644704        0.52456655        0.01032779        0.00193969
       -4.35277153        0.68223191        0.05820561        0.08425832        0.52759029        0.01023304        0.00194465
       -4.34276152        0.68115069        0.05515836        0.08237466        0.53150746        0.01015735        0.00195285
       -4.33275151        0.68158911        0.05229321        0.08082237        0.53640690        0.01010189        0.00196474
       -4.32274150        0.68367053        0.04960794        0.07962797        0.54238591        0.01006795        0.00198077
       -4.31273149        0.68751828        0.04709740        0.07881706        0.54954552        0.01005697        0.00200134
       -4.30272148        0.69325010        0.04475434        0.07841293        0.55798563        0.01007038        0.00202682
       -4.29271147        0.70097263        0.04257013        0.07843518        0.56780019        0.01010961        0.00205752
       -4.28270146        0.71077625        0.04053555        0.07889822        0.57907288        0.01017592        0.00209368
       -4.27269145        0.72273041        0.03864145        0.07980990        0.59187323        0.01027038        0.00213544
       -4.26268144        0.73687965        0.03687935        0.08117026        0.60625343        0.01039373        0.00218288
       -4.25267143        0.75324034        0.03524186        0.08297042        0.62224580        0.01054628        0.00223597
       -4.24266142        0.77179819        0.03372297        0.08519187        0.63986088        0.01072788        0.00229459
       -4.23265141        0.79250650        0.03231817        0.08780591        0.65908608        0.01093781        0.00235854
       -4.22264140        0.81528498        0.03102441        0.09077363        0.67988475        0.01117470        0.00242750
       -4.21263139        0.84001914        0.02983990        0.09404610        0.70219550        0.01143653        0.00250110
       -4.20262138        0.86656004        0.02876383        0.09756513        0.72593162        0.01172062        0.00257883
       -4.19261137        0.89472436        0.02779591        0.10126428        0.75098045        0.01202359        0.00266014
       -4.18260136        0.92429474        0.02693592        0.10507028        0.77720277        0.01234143        0.00274435
       -4.17259135        0.95502028        0.02618325        0.10890483        0.80443193        0.01266953        0.00283074
       -4.16258134        0.98661733        0.02553638        0.11268661        0.83247306        0.01300281        0.00291848
       -4.15257133        1.01877076        0.02499250        0.11633350        0.86110231        0.01333577        0.00300667
       -4.14256132        1.05113559        0.02454716        0.11976498        0.89006641        0.01366268        0.00309437
       -4.13255131        1.08333959        0.02419404        0.12290449        0.91908285        0.01397766        0.00318055
       -4.12254130        1.11498667        0.02392485        0.12568185        0.94784092        0.01427489        0.00326416
       -4.11253129        1.14566167        0.02372939        0.12803541        0.97600401        0.01454873        0.00334413
       -4.10252128        1.17493646        0.02359570        0.12991409        1.00321337        0.01479393        0.00341936
       -4.09251127        1.20237762        0.02351037        0.13127902        1.02909372        0.01500571        0.00348880
       -4.08250126        1.22755571        0.02345892        0.13210485        1.05326055        0.01517996        0.00355142
       -4.07249125        1.25005599        0.02342634        0.13238055        1.07532948        0.01531334        0.00360628
       -4.06248124        1.26949040        0.02339760        0.13210983        1.09492710        0.01540334        0.00365253
       -4.05247123        1.28551033        0.02335826        0.13131093        1.11170326        0.01544843        0.00368946
       -4.04246122        1.29781973        0.02329500        0.13001601        1.12534418        0.01544803        0.00371652
       -4.03245121        1.30618780        0.02319616        0.12826996        1.13558578        0.01540256        0.00373334
       -4.02244120        1.31046062        0.02305222        0.12612888        1.14222634        0.01531341        0.00373977
       -4.01243119        1.31057089        0.02285609        0.12365805        1.14513794        0.01518294        0.00373588
       -4.00242118        1.30654497        0.02260337        0.12092968        1.14427562        0.01501434        0.00372196
       -3.99241117        1.29850670        0.02229243        0.11802042        1.13968368        0.01481163        0.00369855
       -3.98240116        1.28667737        0.02192436        0.11500871        1.13149841        0.01457946        0.00366642
       -3.97239115        1.27137157        0.02150277        0.11197221        1.11994695        0.01432309        0.00362656
       -3.96238114        1.25298885        0.02103348        0.10898520        1.10534190        0.01404814        0.00358013
       -3.95237113        1.23200136        0.02052413        0.10611624        1.08807197        0.01376054        0.00352849
       -3.94236112        1.20893798        0.01998363        0.10342611        1.06858881        0.01346632        0.00347310
       -3.93235111        1.18436556        0.01942169        0.10096607        1.04739081        0.01317150        0.00341550
       -3.92234110        1.15886834        0.01884821        0.09877658        1.02500440        0.01288188        0.00335727
       -3.91233109        1.13302634        0.01827279        0.09688642        1.00196416        0.01260298        0.00329999
       -3.90232108        1.10739414        0.01770427        0.09531236        0.97879255        0.01233981        0.00324513
       -3.89231107        1.08248097        0.01715031        0.09405932        0.95598041        0.01209686        0.00319408
       -3.88230106        1.05873327        0.01661709        0.09312087        0.93396936        0.01187789        0.00314806
       -3.87229105        1.03652046        0.01610919        0.09248035        0.91313694        0.01168591        0.00310807
       -3.86228104        1.01612482        0.01562947        0.09211214        0.89378520        0.01152313        0.00307488
       -3.85227103        0.99773570        0.01517916        0.09198340        0.87613325        0.01139088        0.00304900
       -3.84226102        0.98144827        0.01475799        0.09205582        0.86031415        0.01128964        0.00303067
       -3.83225101        0.96726676        0.01436441        0.09228764        0.84637586        0.01121903        0.00301982
       -3.82224100        0.95511171        0.01399591        0.09263556        0.83428625        0.01117786        0.00301613
       -3.81223099        0.94483070        0.01364934        0.09305661        0.82394154        0.01116422        0.00301900
       -3.80222098        0.93621178        0.01332119        0.09350981        0.81517764        0.01117552        0.00302763
       -3.79221097        0.92899880        0.01300799        0.09395769        0.80778352        0.01120862        0.00304098
       -3.78220096        0.92290767        0.01270651        0.09436741        0.80151590        0.01125995        0.00305790
       -3.77219095        0.91764277        0.01241406        0.09471164        0.79611432        0.01132564        0.00307711
       -3.76218094        0.91291261        0.01212860        0.09496912        0.79131594        0.01140166        0.00309729
       -3.75217093        0.90844410        0.01184890        0.09512484        0.78686930        0.01148393        0.00311714
       -3.74216092        0.90399480        0.01157453        0.09516996        0.78254640        0.01156850        0.00313541
       -3.73215091        0.89936287        0.01130590        0.09510153        0.77815281        0.01165166        0.00315097
       -3.72214090        0.89439422        0.01104412        0.09492185        0.77353532        0.01173006        0.00316287
       -3.71213089        0.88898700        0.01079096        0.09463780        0.76858707        0.01180081        0.00317035
       -3.70212088        0.88309319        0.01054864        0.09426000        0.76325008        0.01186158        0.00317288
       -3.69211087        0.87671767        0.01031973        0.09380187        0.75751521        0.01191066        0.00317021
       -3.68210086        0.86991475        0.01010691        0.09327868        0.75141986        0.01194697        0.00316233
       -3.67209085        0.86278260        0.00991288        0.09270666        0.74504345        0.01197012        0.00314950
       -3.66208084        0.85545595        0.00974011        0.09210207        0.73850122        0.01198034        0.00313221
       -3.65207083        0.84809735        0.00959073        0.09148040        0.73193656        0.01197848        0.00311118
       -3.64206082        0.84088753        0.00946642        0.09085560        0.72551231        0.01196591        0.00308728
       -3.63205081        0.83401526        0.00936822        0.09023948        0.71940158        0.01194443        0.00306154
       -3.62204080        0.82766714        0.00929649        0.08964115        0.71377828        0.01191619        0.00303504
       -3.61203079        0.82201778        0.00925082        0.08906665        0.70880793        0.01188352        0.00300887
       -3.60202078        0.81722077        0.00923000        0.08851869        0.70463913        0.01184885        0.00298410
       -3.59201077        0.81340071        0.00923200        0.08799651        0.70139594        0.01181456        0.00296170
       -3.58200076        0.81064681        0.00925399        0.08749594        0.69917153        0.01178285        0.00294250
       -3.57199075        0.80900801        0.00929240        0.08700955        0.69802323        0.01175568        0.00292715
       -3.56198074        0.80848996        0.00934301        0.08652695        0.69796929        0.01173464        0.00291608
       -3.55197073        0.80905385        0.00940106        0.08603527        0.69898713        0.01172089        0.00290950
       -3.54196072        0.81061708        0.00946142        0.08551967        0.70101345        0.01171517        0.00290737
       -3.53195071        0.81305563        0.00951875        0.08496405        0.70394571        0.01171773        0.00290939
       -3.52194070        0.81620801        0.00956769        0.08435171        0.70764518        0.01172835        0.00291508
       -3.51193069        0.81988052        0.00960306        0.08366612        0.71194121        0.01174642        0.00292371
       -3.50192068        0.82385364        0.00962008        0.08289168        0.71663655        0.01177092        0.00293441
       -3.49191067        0.82788917        0.00961453        0.08201444        0.72151349        0.01180054        0.00294617
       -3.48190066        0.83173796        0.00958291        0.08102280        0.72634066        0.01183372        0.00295787
       -3.47189065        0.83514793        0.00952261        0.07990801        0.73088018        0.01186875        0.00296839
       -3.46188064        0.83787216        0.00943196        0.07866471        0.73489509        0.01190381        0.00297657
       -3.45187063        0.83967684        0.00931031        0.07729126        0.73815683        0.01193712        0.00298133
       -3.44186062        0.84034898        0.00915800        0.07578988        0.74045254        0.01196690        0.00298167
       -3.43185061        0.83970356        0.00897636        0.07416678        0.74159214        0.01199155        0.00297673
       -3.42184060        0.83759014        0.00876759        0.07243207        0.74141505        0.01200961        0.00296581
       -3.41183059        0.83389873        0.00853466        0.07059953        0.73979626        0.01201988        0.00294840
       -3.40182058        0.82856475        0.00828118        0.06868628        0.73665166        0.01202141        0.00292422
       -3.39181057        0.82157285        0.00801121        0.06671241        0.73194247        0.01201356        0.00289320
       -3.38180056        0.81295964        0.00772915        0.06470044        0.72567853        0.01199603        0.00285550
       -3.37179055        0.80281488        0.00743951        0.06267475        0.71792025        0.01196886        0.00281151
       -3.36178054        0.79128117        0.00714682        0.06066101        0.70877902        0.01193248        0.00276185
