#  aims_uuid : F128D8B5-E5F3-407F-ADF6-DC6AC86BB935                                
#  angular momentum projected density of states for species Mo as calculated by FHI-aims 
# The energy reference for this output is the chemical potential, mu =      -5.106688 eV
#      Energy (eV)         total dos     l= 0              l= 1              l= 2              l= 3              l= 4
       -4.89331207        0.88759259        0.03549537        0.14491070        0.69326396        0.01218311        0.00173944
       -4.88330206        0.92965537        0.03982175        0.15445306        0.72084347        0.01269999        0.00183710
       -4.87329205        0.97119629        0.04450175        0.16409055        0.74743999        0.01323146        0.00193253
       -4.86328204        1.01188959        0.04953200        0.17373595        0.77282394        0.01377269        0.00202501
       -4.85327203        1.05142139        0.05490280        0.18329702        0.79678910        0.01431868        0.00211379
       -4.84326202        1.08949208        0.06059735        0.19267778        0.81915442        0.01486434        0.00219819
       -4.83325201        1.12581797        0.06659106        0.20177995        0.83976480        0.01540459        0.00227756
       -4.82324200        1.16013232        0.07285106        0.21050448        0.85849102        0.01593444        0.00235131
       -4.81323199        1.19218606        0.07933585        0.21875328        0.87522904        0.01644901        0.00241889
       -4.80322198        1.22174856        0.08599536        0.22643090        0.88989887        0.01694358        0.00247985
       -4.79321197        1.24860844        0.09277117        0.23344643        0.90244336        0.01741368        0.00253379
       -4.78320196        1.27257476        0.09959719        0.23971529        0.91282676        0.01785510        0.00258041
       -4.77319195        1.29347864        0.10640065        0.24516104        0.92103350        0.01826395        0.00261951
       -4.76318194        1.31117509        0.11310342        0.24971708        0.92706695        0.01863668        0.00265096
       -4.75317193        1.32554522        0.11962371        0.25332822        0.93094832        0.01897022        0.00267474
       -4.74316192        1.33649835        0.12587799        0.25595196        0.93271555        0.01926193        0.00269091
       -4.73315191        1.34397412        0.13178308        0.25755958        0.93242211        0.01950973        0.00269962
       -4.72314190        1.34794409        0.13725842        0.25813680        0.93013566        0.01971210        0.00270110
       -4.71313189        1.34841289        0.14222827        0.25768419        0.92593664        0.01986814        0.00269564
       -4.70312188        1.34541857        0.14662386        0.25621712        0.91991644        0.01997756        0.00268361
       -4.69311187        1.33903230        0.15038530        0.25376531        0.91217562        0.02004068        0.00266538
       -4.68310186        1.32935716        0.15346328        0.25037213        0.90282191        0.02005845        0.00264139
       -4.67309185        1.31652637        0.15582027        0.24609344        0.89196823        0.02003233        0.00261209
       -4.66308184        1.30070086        0.15743145        0.24099619        0.87973096        0.01996432        0.00257793
       -4.65307183        1.28206647        0.15828509        0.23515685        0.86622835        0.01985682        0.00253935
       -4.64306182        1.26083090        0.15838255        0.22865953        0.85157944        0.01971257        0.00249680
       -4.63305181        1.23722059        0.15773780        0.22159415        0.83590338        0.01953456        0.00245071
       -4.62304180        1.21147766        0.15637663        0.21405441        0.81931918        0.01932597        0.00240147
       -4.61303179        1.18385691        0.15433552        0.20613596        0.80194593        0.01909001        0.00234949
       -4.60302178        1.15462306        0.15166025        0.19793443        0.78390330        0.01882993        0.00229514
       -4.59301177        1.12404802        0.14840442        0.18954371        0.76531223        0.01854889        0.00223878
       -4.58300176        1.09240834        0.14462782        0.18105430        0.74629553        0.01824992        0.00218077
       -4.57299175        1.05998252        0.14039485        0.17255191        0.72697840        0.01793589        0.00212147
       -4.56298174        1.02704834        0.13577299        0.16411613        0.70748853        0.01760946        0.00206123
       -4.55297173        0.99388011        0.13083134        0.15581945        0.68795580        0.01727309        0.00200043
       -4.54296172        0.96074567        0.12563934        0.14772639        0.66851149        0.01692901        0.00193943
       -4.53295171        0.92790347        0.12026555        0.13989296        0.64928707        0.01657927        0.00187862
       -4.52294170        0.89559964        0.11477670        0.13236628        0.63041253        0.01622571        0.00181842
       -4.51293169        0.86406519        0.10923674        0.12518452        0.61201467        0.01587005        0.00175922
       -4.50292168        0.83351363        0.10370611        0.11837701        0.59421517        0.01551387        0.00170147
       -4.49291167        0.80413911        0.09824110        0.11196468        0.57712903        0.01515871        0.00164558
       -4.48290166        0.77611526        0.09289319        0.10596063        0.56086330        0.01480612        0.00159202
       -4.47289165        0.74959481        0.08770864        0.10037096        0.54551634        0.01445764        0.00154123
       -4.46288164        0.72471020        0.08272802        0.09519576        0.53117780        0.01411496        0.00149366
       -4.45287163        0.70157497        0.07798582        0.09043023        0.51792927        0.01377988        0.00144978
       -4.44286162        0.68028606        0.07351020        0.08606591        0.50584553        0.01345437        0.00141005
       -4.43285161        0.66092680        0.06932279        0.08209194        0.49499653        0.01314061        0.00137493
       -4.42284160        0.64357032        0.06543855        0.07849632        0.48544957        0.01284098        0.00134491
       -4.41283159        0.62828336        0.06186585        0.07526710        0.47727189        0.01255806        0.00132046
       -4.40282158        0.61512992        0.05860663        0.07239350        0.47053311        0.01229459        0.00130210
       -4.39281157        0.60417478        0.05565667        0.06986682        0.46530751        0.01205345        0.00129032
       -4.38280156        0.59548644        0.05300611        0.06768123        0.46167585        0.01183758        0.00128567
       -4.37279155        0.58913939        0.05064002        0.06583425        0.45972649        0.01164994        0.00128868
       -4.36278154        0.58521535        0.04853917        0.06432708        0.45955576        0.01149340        0.00129994
       -4.35277153        0.58380358        0.04668085        0.06316462        0.46126741        0.01137070        0.00132001
       -4.34276152        0.58499997        0.04503985        0.06235527        0.46497102        0.01128435        0.00134949
       -4.33275151        0.58890487        0.04358942        0.06191048        0.47077947        0.01123653        0.00138896
       -4.32274150        0.59561983        0.04230224        0.06184413        0.47880534        0.01122909        0.00143903
       -4.31273149        0.60524300        0.04115139        0.06217161        0.48915636        0.01126341        0.00150023
       -4.30272148        0.61786358        0.04011119        0.06290885        0.50193004        0.01134040        0.00157310
       -4.29271147        0.63355523        0.03915798        0.06407116        0.51720755        0.01146043        0.00165811
       -4.28270146        0.65236880        0.03827071        0.06567196        0.53504716        0.01162331        0.00175565
       -4.27269145        0.67432451        0.03743143        0.06772152        0.55547727        0.01182826        0.00186602
       -4.26268144        0.69940402        0.03662548        0.07022562        0.57848965        0.01207385        0.00198942
       -4.25267143        0.72754272        0.03584170        0.07318425        0.60403287        0.01235802        0.00212588
       -4.24266142        0.75862267        0.03507225        0.07659043        0.63200661        0.01267807        0.00227531
       -4.23265141        0.79246667        0.03431246        0.08042912        0.66225708        0.01303060        0.00243742
       -4.22264140        0.82883397        0.03356045        0.08467625        0.69457395        0.01341156        0.00261176
       -4.21263139        0.86741800        0.03281666        0.08929813        0.72868929        0.01381626        0.00279765
       -4.20262138        0.90784658        0.03208336        0.09425093        0.76427868        0.01423939        0.00299421
       -4.19261137        0.94968485        0.03136404        0.09948069        0.80096473        0.01467504        0.00320034
       -4.18260136        0.99244116        0.03066288        0.10492355        0.83832316        0.01511686        0.00341471
       -4.17259135        1.03557579        0.02998417        0.11050643        0.87589135        0.01555809        0.00363576
       -4.16258134        1.07851241        0.02933185        0.11614816        0.91317898        0.01599171        0.00386170
       -4.15257133        1.12065188        0.02870904        0.12176102        0.94968066        0.01641062        0.00409055
       -4.14256132        1.16138791        0.02811774        0.12725257        0.98488970        0.01680780        0.00432010
       -4.13255131        1.20012374        0.02755860        0.13252802        1.01831263        0.01717651        0.00454798
       -4.12254130        1.23628916        0.02703072        0.13749272        1.04948359        0.01751047        0.00477166
       -4.11253129        1.26935710        0.02653174        0.14205490        1.07797788        0.01780409        0.00498849
       -4.10252128        1.29885870        0.02605780        0.14612854        1.10342397        0.01805264        0.00519574
       -4.09251127        1.32439639        0.02560379        0.14963613        1.12551339        0.01825240        0.00539068
       -4.08250126        1.34565415        0.02516356        0.15251124        1.14400796        0.01840081        0.00557058
       -4.07249125        1.36240454        0.02473024        0.15470092        1.15874403        0.01849651        0.00573283
       -4.06248124        1.37451232        0.02429661        0.15616751        1.16963378        0.01853942        0.00587501
       -4.05247123        1.38193458        0.02385544        0.15689002        1.17666350        0.01853071        0.00599491
       -4.04246122        1.38471751        0.02339992        0.15686489        1.17988929        0.01847274        0.00609067
       -4.03245121        1.38299042        0.02292399        0.15610609        1.17943060        0.01836893        0.00616081
       -4.02244120        1.37695730        0.02242270        0.15464452        1.17546214        0.01822363        0.00620431
       -4.01243119        1.36688678        0.02189244        0.15252686        1.16820489        0.01804194        0.00622065
       -4.00242118        1.35310105        0.02133121        0.14981370        1.15791678        0.01782951        0.00620986
       -3.99241117        1.33596443        0.02073869        0.14657728        1.14488364        0.01759231        0.00617250
       -3.98240116        1.31587229        0.02011634        0.14289882        1.12941093        0.01733647        0.00610973
       -3.97239115        1.29324064        0.01946732        0.13886557        1.11181651        0.01706803        0.00602321
       -3.96238114        1.26849679        0.01879641        0.13456780        1.09242471        0.01679276        0.00591511
       -3.95237113        1.24207127        0.01810979        0.13009576        1.07156166        0.01651606        0.00578800
       -3.94236112        1.21439099        0.01741478        0.12553692        1.04955171        0.01624279        0.00564479
       -3.93235111        1.18587354        0.01671958        0.12097338        1.02671477        0.01597718        0.00548863
       -3.92234110        1.15692241        0.01603285        0.11647973        1.00336423        0.01572279        0.00532281
       -3.91233109        1.12792296        0.01536344        0.11212140        0.97980504        0.01548246        0.00515062
       -3.90232108        1.09923873        0.01471996        0.10795346        0.95633173        0.01525831        0.00497526
       -3.89231107        1.07120798        0.01411050        0.10401990        0.93322603        0.01505181        0.00479975
       -3.88230106        1.04414037        0.01354227        0.10035356        0.91075400        0.01486374        0.00462680
       -3.87229105        1.01831343        0.01302140        0.09697633        0.88916258        0.01469432        0.00445879
       -3.86228104        0.99396923        0.01255268        0.09389989        0.86867570        0.01454329        0.00429767
       -3.85227103        0.97131106        0.01213943        0.09112673        0.84949002        0.01440993        0.00414495
       -3.84226102        0.95050044        0.01178341        0.08865137        0.83177076        0.01429322        0.00400169
       -3.83225101        0.93165468        0.01148481        0.08646176        0.81564771        0.01419188        0.00386851
       -3.82224100        0.91484525        0.01124228        0.08454081        0.80121204        0.01410451        0.00374562
       -3.81223099        0.90009720        0.01105300        0.08286774        0.78851398        0.01402961        0.00363287
       -3.80222098        0.88738980        0.01091285        0.08141954        0.77756188        0.01396572        0.00352980
       -3.79221097        0.87665855        0.01081659        0.08017214        0.76832263        0.01391145        0.00343574
       -3.78220096        0.86779863        0.01075807        0.07910147        0.76072373        0.01386555        0.00334982
       -3.77219095        0.86066974        0.01073045        0.07818433        0.75465688        0.01382696        0.00327112
       -3.76218094        0.85510212        0.01072651        0.07739904        0.74998308        0.01379484        0.00319865
       -3.75217093        0.85090369        0.01073886        0.07672587        0.74653889        0.01376858        0.00313148
       -3.74216092        0.84786789        0.01076025        0.07614734        0.74414372        0.01374785        0.00306873
       -3.73215091        0.84578189        0.01078377        0.07564831        0.74260763        0.01373253        0.00300965
       -3.72214090        0.84443490        0.01080310        0.07521600        0.74173944        0.01372276        0.00295359
       -3.71213089        0.84362603        0.01081272        0.07483989        0.74135447        0.01371887        0.00290008
       -3.70212088        0.84317146        0.01080800        0.07451152        0.74128180        0.01372136        0.00284878
       -3.69211087        0.84291046        0.01078538        0.07422432        0.74137043        0.01373086        0.00279948
       -3.68210086        0.84271004        0.01074239        0.07397332        0.74149417        0.01374805        0.00275211
       -3.67209085        0.84246793        0.01067765        0.07375496        0.74155500        0.01377361        0.00270670
       -3.66208084        0.84211385        0.01059085        0.07356680        0.74148465        0.01380816        0.00266339
       -3.65207083        0.84160886        0.01048263        0.07340724        0.74124449        0.01385215        0.00262235
       -3.64206082        0.84094307        0.01035447        0.07327531        0.74082367        0.01390581        0.00258381
       -3.63205081        0.84013171        0.01020850        0.07317034        0.74023578        0.01396905        0.00254804
       -3.62204080        0.83920985        0.01004735        0.07309170        0.73951410        0.01404140        0.00251529
       -3.61203079        0.83822621        0.00987391        0.07303852        0.73870603        0.01412195        0.00248579
       -3.60202078        0.83723644        0.00969119        0.07300935        0.73786683        0.01420930        0.00245977
       -3.59201077        0.83629618        0.00950209        0.07300191        0.73705327        0.01430153        0.00243739
       -3.58200076        0.83545458        0.00930928        0.07301282        0.73631749        0.01439624        0.00241875
       -3.57199075        0.83474844        0.00911507        0.07303734        0.73570159        0.01449055        0.00240390
       -3.56198074        0.83419755        0.00892131        0.07306918        0.73523303        0.01458121        0.00239282
       -3.55197073        0.83380126        0.00872938        0.07310045        0.73492139        0.01466465        0.00238539
       -3.54196072        0.83353665        0.00854014        0.07312158        0.73475636        0.01473716        0.00238142
       -3.53195071        0.83335820        0.00835396        0.07312146        0.73470711        0.01479503        0.00238064
       -3.52194070        0.83319890        0.00817080        0.07308761        0.73472310        0.01483469        0.00238270
       -3.51193069        0.83297276        0.00799029        0.07300650        0.73473589        0.01485291        0.00238717
       -3.50192068        0.83257839        0.00781178        0.07286396        0.73466213        0.01484694        0.00239357
       -3.49191067        0.83190339        0.00763448        0.07264573        0.73440714        0.01481470        0.00240135
       -3.48190066        0.83082934        0.00745752        0.07233796        0.73386909        0.01475484        0.00240992
       -3.47189065        0.82923697        0.00728008        0.07192791        0.73294344        0.01466686        0.00241868
       -3.46188064        0.82701149        0.00710141        0.07140451        0.73152740        0.01455115        0.00242702
       -3.45187063        0.82404763        0.00692095        0.07075900        0.72952436        0.01440898        0.00243433
       -3.44186062        0.82025447        0.00673834        0.06998548        0.72684812        0.01424247        0.00244005
       -3.43185061        0.81555973        0.00655342        0.06908135        0.72342679        0.01405450        0.00244367
       -3.42184060        0.80991375        0.00636631        0.06804769        0.71920643        0.01384859        0.00244474
       -3.41183059        0.80329280        0.00617733        0.06688946        0.71415431        0.01362876        0.00244293
       -3.40182058        0.79570193        0.00598706        0.06561567        0.70826181        0.01339942        0.00243798
       -3.39181057        0.78717721        0.00579625        0.06423926        0.70154679        0.01316513        0.00242978
       -3.38180056        0.77778726        0.00560585        0.06277699        0.69405557        0.01293051        0.00241834
       -3.37179055        0.76763410        0.00541698        0.06124911        0.68586411        0.01270009        0.00240382
       -3.36178054        0.75685301        0.00523088        0.05967902        0.67707848        0.01247816        0.00238647
