#  aims_uuid : F128D8B5-E5F3-407F-ADF6-DC6AC86BB935                                
#  angular momentum projected density of states for species S as calculated by FHI-aims 
# The energy reference for this output is the vacuum level =       0.000000 eV
#      Energy (eV)         total dos     l= 0              l= 1              l= 2              l= 3              l= 4
      -10.00000000        1.02652362        0.07629013        0.88560097        0.05770667        0.00635884        0.00056701
       -9.98998999        1.08184069        0.08131537        0.93238054        0.06087683        0.00666909        0.00059887
       -9.97997998        1.13671234        0.08632150        0.97881474        0.06397142        0.00697185        0.00063282
       -9.96996997        1.19067437        0.09126785        1.02450523        0.06696734        0.00726523        0.00066871
       -9.95995996        1.24325423        0.09611151        1.06904724        0.06984173        0.00754742        0.00070633
       -9.94994995        1.29397324        0.10080763        1.11203158        0.07257194        0.00781667        0.00074543
       -9.93993994        1.34234915        0.10530984        1.15304674        0.07513554        0.00807132        0.00078571
       -9.92992993        1.38789949        0.10957088        1.19168165        0.07751037        0.00830975        0.00082684
       -9.91991992        1.43014628        0.11354342        1.22752936        0.07967469        0.00853038        0.00086844
       -9.90990991        1.46862237        0.11718109        1.26019211        0.08160742        0.00873166        0.00091009
       -9.89989990        1.50287955        0.12043968        1.28928796        0.08328844        0.00891212        0.00095134
       -9.88988989        1.53249841        0.12327848        1.31445880        0.08469907        0.00907036        0.00099169
       -9.87987988        1.55709962        0.12566165        1.33537970        0.08582255        0.00920508        0.00103065
       -9.86986987        1.57635604        0.12755956        1.35176909        0.08664458        0.00931514        0.00106768
       -9.85985986        1.59000490        0.12895000        1.36339907        0.08715396        0.00939959        0.00110228
       -9.84984985        1.59785925        0.12981921        1.37010528        0.08734309        0.00945773        0.00113394
       -9.83983984        1.59981772        0.13016250        1.37179546        0.08720844        0.00948913        0.00116220
       -9.82982983        1.59587182        0.12998463        1.36845596        0.08675094        0.00949367        0.00118662
       -9.81981982        1.58611001        0.12929969        1.36015567        0.08597619        0.00947160        0.00120685
       -9.80980981        1.57071811        0.12813058        1.34704693        0.08489451        0.00942349        0.00122260
       -9.79979980        1.54997596        0.12650816        1.32936305        0.08352082        0.00935026        0.00123367
       -9.78978979        1.52425021        0.12447000        1.30741277        0.08187435        0.00925317        0.00123992
       -9.77977978        1.49398387        0.12205892        1.28157165        0.07997819        0.00913375        0.00124135
       -9.76976977        1.45968300        0.11932137        1.25227108        0.07785872        0.00899380        0.00123803
       -9.75975976        1.42190154        0.11630576        1.21998547        0.07554487        0.00883531        0.00123012
       -9.74974975        1.38122495        0.11306085        1.18521833        0.07306746        0.00866042        0.00121789
       -9.73973974        1.33825375        0.10963429        1.14848811        0.07045835        0.00847133        0.00120167
       -9.72972973        1.29358765        0.10607137        1.11031435        0.06774976        0.00827031        0.00118185
       -9.71971972        1.24781098        0.10241409        1.07120490        0.06497350        0.00805959        0.00115890
       -9.70970971        1.20148007        0.09870046        1.03164460        0.06216034        0.00784136        0.00113332
       -9.69969970        1.15511271        0.09496411        0.99208580        0.05933948        0.00761771        0.00110562
       -9.68968969        1.10918008        0.09123423        0.95294083        0.05653807        0.00739061        0.00107633
       -9.67967968        1.06410092        0.08753562        0.91457650        0.05378087        0.00716193        0.00104600
       -9.66966967        1.02023804        0.08388900        0.87731057        0.05108997        0.00693338        0.00101512
       -9.65965966        0.97789672        0.08031137        0.84140997        0.04848464        0.00670653        0.00098421
       -9.64964965        0.93732500        0.07681645        0.80709073        0.04598130        0.00648282        0.00095370
       -9.63963964        0.89871542        0.07341514        0.77451924        0.04359346        0.00626355        0.00092401
       -9.62962963        0.86220814        0.07011591        0.74381491        0.04133186        0.00604992        0.00089553
       -9.61961962        0.82789517        0.06692516        0.71505387        0.03920458        0.00584300        0.00086856
       -9.60960961        0.79582564        0.06384751        0.68827371        0.03721726        0.00564377        0.00084339
       -9.59959960        0.76601192        0.06088609        0.66347911        0.03537337        0.00545309        0.00082026
       -9.58958959        0.73843657        0.05804268        0.64064826        0.03367446        0.00527179        0.00079937
       -9.57957958        0.71305991        0.05531795        0.61973997        0.03212051        0.00510060        0.00078089
       -9.56956957        0.68982809        0.05271155        0.60070110        0.03071029        0.00494019        0.00076495
       -9.55955956        0.66868146        0.05022237        0.58347448        0.02944167        0.00479122        0.00075171
       -9.54954955        0.64956285        0.04784868        0.56800659        0.02831203        0.00465429        0.00074127
       -9.53953954        0.63242564        0.04558833        0.55425504        0.02731853        0.00452997        0.00073377
       -9.52952953        0.61724111        0.04343905        0.54219539        0.02645849        0.00441884        0.00072933
       -9.51951952        0.60400472        0.04139864        0.53182694        0.02572956        0.00432148        0.00072810
       -9.50950951        0.59274115        0.03946522        0.52317721        0.02513002        0.00423845        0.00073025
       -9.49949950        0.58350752        0.03763747        0.51630494        0.02465882        0.00417035        0.00073594
       -9.48948949        0.57639491        0.03591481        0.51130118        0.02431575        0.00411780        0.00074538
       -9.47947948        0.57152773        0.03429754        0.50828865        0.02410136        0.00408142        0.00075876
       -9.46946947        0.56906116        0.03278689        0.50741909        0.02401696        0.00406191        0.00077631
       -9.45945946        0.56917655        0.03138504        0.50886887        0.02406443        0.00405998        0.00079824
       -9.44944945        0.57207505        0.03009503        0.51283280        0.02424609        0.00407637        0.00082476
       -9.43943944        0.57796962        0.02892059        0.51951662        0.02456446        0.00411189        0.00085606
       -9.42942943        0.58707577        0.02786593        0.52912816        0.02502198        0.00416737        0.00089234
       -9.41941942        0.59960129        0.02693545        0.54186771        0.02562076        0.00424366        0.00093371
       -9.40940941        0.61573537        0.02613340        0.55791776        0.02636228        0.00434165        0.00098028
       -9.39939940        0.63563740        0.02546350        0.57743252        0.02724710        0.00446219        0.00103209
       -9.38938939        0.65942586        0.02492859        0.60052744        0.02827458        0.00460612        0.00108912
       -9.37937938        0.68716754        0.02453023        0.62726923        0.02944264        0.00477417        0.00115128
       -9.36936937        0.71886757        0.02426831        0.65766643        0.03074747        0.00496696        0.00121841
       -9.35935936        0.75446037        0.02414079        0.69166108        0.03218335        0.00518490        0.00129024
       -9.34934935        0.79380214        0.02414339        0.72912165        0.03374250        0.00542815        0.00136645
       -9.33933934        0.83666497        0.02426938        0.76983760        0.03541486        0.00569654        0.00144658
       -9.32932933        0.88273300        0.02450948        0.81351585        0.03718809        0.00598949        0.00153009
       -9.31931932        0.93160111        0.02485182        0.85977952        0.03904749        0.00630592        0.00161636
       -9.30930931        0.98277608        0.02528203        0.90816916        0.04097601        0.00664424        0.00170464
       -9.29929930        1.03568091        0.02578339        0.95814676        0.04295440        0.00700224        0.00179411
       -9.28928929        1.08966207        0.02633714        1.00910259        0.04496136        0.00737712        0.00188386
       -9.27927928        1.14400001        0.02692285        1.06036505        0.04697380        0.00776541        0.00197290
       -9.26926927        1.19792272        0.02751888        1.11121337        0.04896719        0.00816308        0.00206020
       -9.25925926        1.25062211        0.02810299        1.16089297        0.05091598        0.00856551        0.00214466
       -9.24924925        1.30127290        0.02865289        1.20863307        0.05279414        0.00896762        0.00222519
       -9.23923924        1.34905331        0.02914692        1.25366607        0.05457568        0.00936395        0.00230069
       -9.22922923        1.39316691        0.02956469        1.29524798        0.05623530        0.00974882        0.00237012
       -9.21921922        1.43286486        0.02988771        1.33267912        0.05774906        0.01011650        0.00243247
       -9.20920921        1.46746738        0.03009999        1.36532427        0.05909497        0.01046131        0.00248683
       -9.19919920        1.49638386        0.03018852        1.39263136        0.06025370        0.01077788        0.00253241
       -9.18918919        1.51913032        0.03014365        1.41414781        0.06120905        0.01106126        0.00256855
       -9.17917918        1.53534375        0.02995943        1.42953391        0.06194855        0.01130714        0.00259473
       -9.16916917        1.54479240        0.02963368        1.43857243        0.06246378        0.01151191        0.00261061
       -9.15915916        1.54738171        0.02916804        1.44117416        0.06275062        0.01167285        0.00261605
       -9.14914915        1.54315553        0.02856779        1.43737909        0.06280941        0.01178817        0.00261107
       -9.13913914        1.53229263        0.02784162        1.42735318        0.06264490        0.01185708        0.00259586
       -9.12912913        1.51509879        0.02700121        1.41138099        0.06226603        0.01187975        0.00257081
       -9.11911912        1.49199474        0.02606076        1.38985453        0.06168567        0.01185733        0.00253645
       -9.10910911        1.46350068        0.02503642        1.36325886        0.06092008        0.01179185        0.00249347
       -9.09909910        1.43021812        0.02394571        1.33215520        0.05998839        0.01168614        0.00244268
       -9.08908909        1.39280984        0.02280690        1.29716232        0.05891195        0.01154368        0.00238498
       -9.07907908        1.35197880        0.02163843        1.25893694        0.05771359        0.01136849        0.00232135
       -9.06906907        1.30844702        0.02045829        1.21815406        0.05641690        0.01116495        0.00225282
       -9.05905906        1.26293506        0.01928358        1.17548787        0.05504552        0.01093766        0.00218043
       -9.04904905        1.21614293        0.01813003        1.13159396        0.05362245        0.01069126        0.00210524
       -9.03903904        1.16873312        0.01701166        1.08709346        0.05216942        0.01043032        0.00202826
       -9.02902903        1.12131600        0.01594056        1.04255940        0.05070639        0.01015919        0.00195045
       -9.01901902        1.07443823        0.01492670        0.99850581        0.04925110        0.00988192        0.00187271
       -9.00900901        1.02857423        0.01397786        0.95537961        0.04781881        0.00960211        0.00179584
       -8.99899900        0.98412080        0.01309969        0.91355553        0.04642211        0.00932293        0.00172055
       -8.98898899        0.94139500        0.01229575        0.87333387        0.04507089        0.00904706        0.00164744
       -8.97897898        0.90063500        0.01156773        0.83494117        0.04377246        0.00877664        0.00157700
       -8.96896897        0.86200369        0.01091562        0.79853342        0.04253170        0.00851335        0.00150961
       -8.95895896        0.82559485        0.01033798        0.76420155        0.04135139        0.00825840        0.00144554
       -8.94894895        0.79144122        0.00983221        0.73197888        0.04023258        0.00801260        0.00138496
       -8.93893894        0.75952420        0.00939481        0.70185004        0.03917499        0.00777643        0.00132794
       -8.92892893        0.72978458        0.00902164        0.67376091        0.03817745        0.00755008        0.00127449
       -8.91891892        0.70213368        0.00870821        0.64762896        0.03723838        0.00733358        0.00122454
       -8.90890891        0.67646443        0.00844982        0.62335366        0.03635614        0.00712681        0.00117798
       -8.89889890        0.65266181        0.00824180        0.60082629        0.03552943        0.00692962        0.00113467
       -8.88888889        0.63061214        0.00807959        0.57993872        0.03475753        0.00674187        0.00109444
       -8.87887888        0.61021084        0.00795885        0.56059085        0.03404055        0.00656345        0.00105713
       -8.86886887        0.59136831        0.00787551        0.54269630        0.03337952        0.00639439        0.00102258
       -8.85885886        0.57401375        0.00782575        0.52618620        0.03277638        0.00623478        0.00099064
       -8.84884885        0.55809692        0.00780597        0.51101099        0.03223391        0.00608486        0.00096118
       -8.83883884        0.54358768        0.00781275        0.49714029        0.03175556        0.00594497        0.00093411
       -8.82882883        0.53047384        0.00784276        0.48456099        0.03134523        0.00581551        0.00090934
       -8.81881882        0.51875718        0.00789271        0.47327375        0.03100693        0.00569696        0.00088684
       -8.80880881        0.50844845        0.00795925        0.46328835        0.03074450        0.00558980        0.00086655
       -8.79879880        0.49956133        0.00803895        0.45461819        0.03056126        0.00549447        0.00084847
       -8.78878879        0.49210616        0.00812824        0.44727435        0.03045965        0.00541133        0.00083258
       -8.77877878        0.48608363        0.00822344        0.44125971        0.03044095        0.00534066        0.00081888
       -8.76876877        0.48147893        0.00832073        0.43656335        0.03050496        0.00528253        0.00080735
       -8.75875876        0.47825672        0.00841624        0.43315574        0.03064988        0.00523688        0.00079797
       -8.74874875        0.47635717        0.00850612        0.43098488        0.03087206        0.00520342        0.00079070
       -8.73873874        0.47569334        0.00858659        0.42997361        0.03116599        0.00518167        0.00078547
       -8.72872873        0.47614993        0.00865411        0.43001839        0.03152428        0.00517093        0.00078221
       -8.71871872        0.47758368        0.00870542        0.43098935        0.03193777        0.00517033        0.00078082
       -8.70870871        0.47982518        0.00873767        0.43273191        0.03239564        0.00517881        0.00078115
       -8.69869870        0.48268217        0.00874851        0.43506974        0.03288567        0.00519520        0.00078306
       -8.68868869        0.48594424        0.00873616        0.43780895        0.03339453        0.00521823        0.00078637
       -8.67867868        0.48938858        0.00869946        0.44074354        0.03390812        0.00524656        0.00079090
       -8.66866867        0.49278671        0.00863787        0.44366159        0.03441195        0.00527888        0.00079643
       -8.65865866        0.49591184        0.00855150        0.44635217        0.03489156        0.00531387        0.00080275
       -8.64864865        0.49854657        0.00844107        0.44861261        0.03533293        0.00535031        0.00080964
       -8.63863864        0.50049051        0.00830784        0.45025575        0.03572294        0.00538709        0.00081689
       -8.62862863        0.50156761        0.00815358        0.45111681        0.03604972        0.00542322        0.00082428
       -8.61861862        0.50163259        0.00798044        0.45105962        0.03630305        0.00545787        0.00083161
       -8.60860861        0.50057645        0.00779089        0.44998181        0.03647468        0.00549039        0.00083868
       -8.59859860        0.49833043        0.00758762        0.44781868        0.03655853        0.00552026        0.00084534
       -8.58858859        0.49486843        0.00737344        0.44454554        0.03655089        0.00554714        0.00085142
       -8.57857858        0.49020764        0.00715118        0.44017832        0.03645049        0.00557084        0.00085681
       -8.56856857        0.48440730        0.00692365        0.43477249        0.03625850        0.00559126        0.00086139
       -8.55855856        0.47756582        0.00669354        0.42842033        0.03597842        0.00560843        0.00086510
       -8.54854855        0.46981623        0.00646338        0.42124662        0.03561592        0.00562244        0.00086787
       -8.53853854        0.46132039        0.00623553        0.41340315        0.03517860        0.00563345        0.00086967
       -8.52852853        0.45226228        0.00601211        0.40506235        0.03467567        0.00564164        0.00087050
       -8.51851852        0.44284081        0.00579508        0.39641044        0.03411769        0.00564723        0.00087038
       -8.50850851        0.43326256        0.00558616        0.38764047        0.03351617        0.00565044        0.00086932
       -8.49849850        0.42373496        0.00538694        0.37894582        0.03288328        0.00565152        0.00086739
       -8.48848849        0.41446019        0.00519887        0.37051438        0.03223155        0.00565074        0.00086466
       -8.47847848        0.40563024        0.00502328        0.36252376        0.03157358        0.00564841        0.00086121
       -8.46846847        0.39742326        0.00486150        0.35513784        0.03092188        0.00564489        0.00085714
