#  aims_uuid : F128D8B5-E5F3-407F-ADF6-DC6AC86BB935                                
#  angular momentum projected density of states for species S as calculated by FHI-aims 
# The energy reference for this output is the vacuum level =       0.000000 eV
#      Energy (eV)         total dos     l= 0              l= 1              l= 2              l= 3              l= 4
      -10.00000000        0.93190106        0.07020146        0.80283561        0.05216693        0.00609282        0.00060424
       -9.98998999        0.97628298        0.07346251        0.84077549        0.05501885        0.00639136        0.00063476
       -9.97997998        1.02045298        0.07667369        0.87862770        0.05780180        0.00668298        0.00066681
       -9.96996997        1.06402798        0.07981128        0.91605736        0.06049351        0.00696566        0.00070018
       -9.95995996        1.10662376        0.08285227        0.95272706        0.06307234        0.00723748        0.00073462
       -9.94994995        1.14786001        0.08577450        0.98830153        0.06551751        0.00749660        0.00076987
       -9.93993994        1.18736504        0.08855696        1.02245192        0.06780923        0.00774129        0.00080564
       -9.92992993        1.22478015        0.09117987        1.05485986        0.06992888        0.00796989        0.00084165
       -9.91991992        1.25976374        0.09362487        1.08522125        0.07185915        0.00818089        0.00087758
       -9.90990991        1.29199534        0.09587504        1.11325002        0.07358429        0.00837288        0.00091311
       -9.89989990        1.32117970        0.09791507        1.13868190        0.07509025        0.00854456        0.00094792
       -9.88988989        1.34705086        0.09973130        1.16127811        0.07636495        0.00869482        0.00098168
       -9.87987988        1.36937620        0.10131178        1.18082918        0.07739848        0.00882269        0.00101407
       -9.86986987        1.38796051        0.10264635        1.19715862        0.07818338        0.00892740        0.00104476
       -9.85985986        1.40264962        0.10372670        1.21012631        0.07871479        0.00900838        0.00107345
       -9.84984985        1.41333378        0.10454640        1.21963160        0.07899063        0.00906530        0.00109985
       -9.83983984        1.41995014        0.10510096        1.22561568        0.07901176        0.00909803        0.00112371
       -9.82982983        1.42248446        0.10538780        1.22806315        0.07878200        0.00910672        0.00114478
       -9.81981982        1.42097166        0.10540630        1.22700263        0.07830810        0.00909174        0.00116289
       -9.80980981        1.41549520        0.10515776        1.22250623        0.07759963        0.00905369        0.00117788
       -9.79979980        1.40618509        0.10464536        1.21468784        0.07666882        0.00899342        0.00118965
       -9.78978979        1.39321483        0.10387415        1.20370035        0.07553026        0.00891193        0.00119815
       -9.77977978        1.37679716        0.10285096        1.18973181        0.07420061        0.00881042        0.00120336
       -9.76976977        1.35717887        0.10158439        1.17300069        0.07269821        0.00869024        0.00120534
       -9.75975976        1.33463509        0.10008475        1.15375064        0.07104272        0.00855283        0.00120415
       -9.74974975        1.30946301        0.09836397        1.13224469        0.06925467        0.00839975        0.00119993
       -9.73973974        1.28197559        0.09643558        1.10875946        0.06735513        0.00823260        0.00119282
       -9.72972973        1.25249535        0.09431461        1.08357938        0.06536532        0.00805302        0.00118302
       -9.71971972        1.22134848        0.09201753        1.05699127        0.06330627        0.00786267        0.00117074
       -9.70970971        1.18885940        0.08956211        1.02927932        0.06119853        0.00766325        0.00115619
       -9.69969970        1.15534597        0.08696731        1.00072068        0.05906194        0.00745642        0.00113963
       -9.68968969        1.12111523        0.08425308        0.97158163        0.05691539        0.00724384        0.00112129
       -9.67967968        1.08645986        0.08144016        0.94211445        0.05477666        0.00702718        0.00110142
       -9.66966967        1.05165525        0.07854979        0.91255488        0.05266226        0.00680804        0.00108028
       -9.65965966        1.01695716        0.07560348        0.88312022        0.05058731        0.00658803        0.00105813
       -9.64964965        0.98260007        0.07262262        0.85400812        0.04856544        0.00636869        0.00103520
       -9.63963964        0.94879602        0.06962818        0.82539584        0.04660872        0.00615154        0.00101175
       -9.62962963        0.91573420        0.06664040        0.79744022        0.04472756        0.00593799        0.00098803
       -9.61961962        0.88358108        0.06367845        0.77027822        0.04293074        0.00572941        0.00096426
       -9.60960961        0.85248128        0.06076017        0.74402801        0.04122536        0.00552704        0.00094070
       -9.59959960        0.82255910        0.05790182        0.71879077        0.03961689        0.00533204        0.00091757
       -9.58958959        0.79392073        0.05511796        0.69465296        0.03810927        0.00514543        0.00089512
       -9.57957958        0.76665713        0.05242133        0.67168918        0.03670497        0.00496809        0.00087356
       -9.56956957        0.74084741        0.04982282        0.64996543        0.03540525        0.00480076        0.00085314
       -9.55955956        0.71656267        0.04733155        0.62954270        0.03421025        0.00464408        0.00083409
       -9.54954955        0.69387006        0.04495496        0.61048064        0.03311930        0.00449852        0.00081664
       -9.53953954        0.67283683        0.04269896        0.59284124        0.03213117        0.00436444        0.00080102
       -9.52952953        0.65353422        0.04056819        0.57669216        0.03124427        0.00424212        0.00078748
       -9.51951952        0.63604080        0.03856616        0.56210967        0.03045698        0.00413175        0.00077625
       -9.50950951        0.62044520        0.03669553        0.54918080        0.02976785        0.00403344        0.00076757
       -9.49949950        0.60684783        0.03495830        0.53800471        0.02917579        0.00394734        0.00076170
       -9.48948949        0.59536161        0.03335599        0.52869300        0.02868023        0.00387354        0.00075885
       -9.47947948        0.58611151        0.03188979        0.52136899        0.02828124        0.00381221        0.00075929
       -9.46946947        0.57923285        0.03056063        0.51616585        0.02797957        0.00376356        0.00076323
       -9.45945946        0.57486840        0.02936928        0.51322368        0.02777662        0.00372791        0.00077091
       -9.44944945        0.57316436        0.02831627        0.51268556        0.02767436        0.00370565        0.00078252
       -9.43943944        0.57426539        0.02740186        0.51469270        0.02767525        0.00369730        0.00079827
       -9.42942943        0.57830866        0.02662595        0.51937886        0.02778201        0.00370352        0.00081832
       -9.41941942        0.58541747        0.02598788        0.52686428        0.02799746        0.00372503        0.00084281
       -9.40940941        0.59569428        0.02548632        0.53724917        0.02832424        0.00376270        0.00087184
       -9.39939940        0.60921369        0.02511902        0.55060721        0.02876456        0.00381743        0.00090547
       -9.38938939        0.62601551        0.02488266        0.56697906        0.02931992        0.00389016        0.00094371
       -9.37937938        0.64609811        0.02477267        0.58636632        0.02999082        0.00398180        0.00098650
       -9.36936937        0.66941245        0.02478304        0.60872598        0.03077647        0.00409322        0.00103375
       -9.35935936        0.69585701        0.02490625        0.63396586        0.03167454        0.00422511        0.00108525
       -9.34934935        0.72527376        0.02513318        0.66194089        0.03268093        0.00437798        0.00114077
       -9.33933934        0.75744554        0.02545310        0.69245086        0.03378952        0.00455208        0.00119997
       -9.32932933        0.79209504        0.02585374        0.72523950        0.03499205        0.00474732        0.00126243
       -9.31931932        0.82888544        0.02632137        0.75999520        0.03627800        0.00496320        0.00132767
       -9.30930931        0.86742297        0.02684101        0.79635342        0.03763461        0.00519881        0.00139512
       -9.29929930        0.90726145        0.02739668        0.83390099        0.03904688        0.00545276        0.00146414
       -9.28928929        0.94790866        0.02797167        0.87218202        0.04049777        0.00572318        0.00153402
       -9.27927928        0.98883465        0.02854885        0.91070566        0.04196843        0.00600768        0.00160402
       -9.26926927        1.02948174        0.02911111        0.94895532        0.04343853        0.00630345        0.00167334
       -9.25925926        1.06927593        0.02964165        0.98639924        0.04488666        0.00660722        0.00174115
       -9.24924925        1.10763944        0.03012443        1.02250212        0.04629088        0.00691537        0.00180663
       -9.23923924        1.14400399        0.03054450        1.05673734        0.04762921        0.00722398        0.00186896
       -9.22922923        1.17782436        0.03088834        1.08859951        0.04888027        0.00752892        0.00192734
       -9.21921922        1.20859175        0.03114417        1.11761677        0.05002382        0.00782597        0.00198102
       -9.20920921        1.23584644        0.03130220        1.14336256        0.05104143        0.00811092        0.00202932
       -9.19919920        1.25918931        0.03135483        1.16546624        0.05191696        0.00837967        0.00207162
       -9.18918919        1.27829186        0.03129675        1.18362231        0.05263705        0.00862834        0.00210740
       -9.17917918        1.29290417        0.03112503        1.19759791        0.05319159        0.00885339        0.00213625
       -9.16916917        1.30286079        0.03083912        1.20723820        0.05357393        0.00905168        0.00215785
       -9.15915916        1.30808413        0.03044078        1.21246957        0.05378117        0.00922060        0.00217201
       -9.14914915        1.30858539        0.02993394        1.21330055        0.05381415        0.00935810        0.00217865
       -9.13913914        1.30446309        0.02932461        1.20982048        0.05367745        0.00946275        0.00217781
       -9.12912913        1.29589911        0.02862057        1.20219588        0.05337924        0.00953378        0.00216965
       -9.11911912        1.28315266        0.02783121        1.19066493        0.05293100        0.00957108        0.00215443
       -9.10910911        1.26655223        0.02696722        1.17553007        0.05234717        0.00957525        0.00213253
       -9.09909910        1.24648606        0.02604031        1.15714912        0.05164475        0.00954749        0.00210440
       -9.08908909        1.22339120        0.02506293        1.13592526        0.05084275        0.00948966        0.00207059
       -9.07907908        1.19774179        0.02404799        1.11229617        0.04996173        0.00940417        0.00203173
       -9.06906907        1.17003681        0.02300853        1.08672268        0.04902317        0.00929393        0.00198849
       -9.05905906        1.14078768        0.02195750        1.05967734        0.04804898        0.00916225        0.00194160
       -9.04904905        1.11050610        0.02090745        1.03163315        0.04706088        0.00901282        0.00189181
       -9.03903904        1.07969248        0.01987033        1.00305290        0.04607987        0.00884950        0.00183988
       -9.02902903        1.04882522        0.01885727        0.97437926        0.04512577        0.00867632        0.00178660
       -9.01901902        1.01835112        0.01787841        0.94602603        0.04421669        0.00849730        0.00173269
       -9.00900901        0.98867722        0.01694271        0.91837053        0.04336870        0.00831640        0.00167889
       -8.99899900        0.96016409        0.01605791        0.89174753        0.04259546        0.00813734        0.00162584
       -8.98898899        0.93312081        0.01523039        0.86644471        0.04190795        0.00796359        0.00157416
       -8.97897898        0.90780166        0.01446516        0.84269960        0.04131432        0.00779820        0.00152437
       -8.96896897        0.88440453        0.01376586        0.82069821        0.04081975        0.00764379        0.00147692
       -8.95895896        0.86307092        0.01313476        0.80057507        0.04042648        0.00750247        0.00143214
       -8.94894895        0.84388746        0.01257288        0.78241467        0.04013384        0.00737578        0.00139030
       -8.93893894        0.82688882        0.01208003        0.76625412        0.03993840        0.00726472        0.00135155
       -8.92892893        0.81206167        0.01165497        0.75208679        0.03983422        0.00716973        0.00131597
       -8.91891892        0.79934958        0.01129552        0.73986674        0.03981310        0.00709069        0.00128353
       -8.90890891        0.78865852        0.01099870        0.72951369        0.03986496        0.00702704        0.00125413
       -8.89889890        0.77986283        0.01076094        0.72091833        0.03997822        0.00697774        0.00122761
       -8.88888889        0.77281127        0.01057816        0.71394773        0.04014020        0.00694142        0.00120375
       -8.87887888        0.76733314        0.01044600        0.70845078        0.04033762        0.00691646        0.00118228
       -8.86886887        0.76324420        0.01035989        0.70426338        0.04055698        0.00690102        0.00116293
       -8.85885886        0.76035236        0.01031524        0.70121345        0.04078507        0.00689320        0.00114539
       -8.84884885        0.75846296        0.01030752        0.69912563        0.04100935        0.00689109        0.00112938
       -8.83883884        0.75738376        0.01033232        0.69782560        0.04121835        0.00689288        0.00111461
       -8.82882883        0.75692936        0.01038548        0.69714415        0.04140200        0.00689690        0.00110083
       -8.81881882        0.75692533        0.01046311        0.69692075        0.04155193        0.00690173        0.00108782
       -8.80880881        0.75721173        0.01056156        0.69700689        0.04166168        0.00690619        0.00107541
       -8.79879880        0.75764615        0.01067751        0.69726890        0.04172685        0.00690942        0.00106346
       -8.78878879        0.75810613        0.01080789        0.69759030        0.04174516        0.00691088        0.00105190
       -8.77877878        0.75849091        0.01094985        0.69787358        0.04171646        0.00691034        0.00104067
       -8.76876877        0.75872242        0.01110077        0.69804138        0.04164261        0.00690788        0.00102979
       -8.75875876        0.75874542        0.01125812        0.69803682        0.04152733        0.00690385        0.00101930
       -8.74874875        0.75852671        0.01141947        0.69782312        0.04137600        0.00689884        0.00100928
       -8.73873874        0.75805350        0.01158241        0.69738236        0.04119530        0.00689359        0.00099983
       -8.72872873        0.75733083        0.01174452        0.69671333        0.04099292        0.00688899        0.00099107
       -8.71871872        0.75637824        0.01190328        0.69582872        0.04077714        0.00688597        0.00098313
       -8.70870871        0.75522580        0.01205611        0.69475163        0.04055649        0.00688545        0.00097613
       -8.69869870        0.75390969        0.01220033        0.69351164        0.04033927        0.00688827        0.00097018
       -8.68868869        0.75246759        0.01233319        0.69214064        0.04013322        0.00689515        0.00096539
       -8.67867868        0.75093415        0.01245189        0.69066871        0.03994512        0.00690662        0.00096181
       -8.66866867        0.74933689        0.01255365        0.68912029        0.03978047        0.00692299        0.00095949
       -8.65865866        0.74769260        0.01263580        0.68751085        0.03964322        0.00694430        0.00095843
       -8.64864865        0.74600466        0.01269583        0.68584435        0.03953556        0.00697033        0.00095859
       -8.63863864        0.74426135        0.01273153        0.68411160        0.03945775        0.00700058        0.00095989
       -8.62862863        0.74243520        0.01274105        0.68228958        0.03940808        0.00703428        0.00096221
       -8.61861862        0.74048354        0.01272301        0.68034184        0.03938288        0.00707041        0.00096540
       -8.60860861        0.73835005        0.01267661        0.67821984        0.03937659        0.00710772        0.00096928
       -8.59859860        0.73596725        0.01260162        0.67586524        0.03938195        0.00714480        0.00097364
       -8.58858859        0.73325989        0.01249852        0.67321282        0.03939022        0.00718009        0.00097825
       -8.57857858        0.73014880        0.01236840        0.67019404        0.03939153        0.00721195        0.00098288
       -8.56856857        0.72655520        0.01221304        0.66674091        0.03937524        0.00723874        0.00098727
       -8.55855856        0.72240519        0.01203482        0.66278997        0.03933037        0.00725884        0.00099119
       -8.54854855        0.71763413        0.01183663        0.65828625        0.03924608        0.00727076        0.00099441
       -8.53853854        0.71219081        0.01162180        0.65318695        0.03911217        0.00727316        0.00099673
       -8.52852853        0.70604128        0.01139402        0.64746480        0.03891957        0.00726494        0.00099795
       -8.51851852        0.69917208        0.01115715        0.64111084        0.03866087        0.00724527        0.00099795
       -8.50850851        0.69159284        0.01091517        0.63413670        0.03833072        0.00721365        0.00099661
       -8.49849850        0.68333823        0.01067202        0.62657607        0.03792632        0.00716995        0.00099386
       -8.48848849        0.67446902        0.01043153        0.61848563        0.03744767        0.00711447        0.00098971
       -8.47847848        0.66507234        0.01019735        0.60994508        0.03689783        0.00704788        0.00098420
       -8.46846847        0.65526111        0.00997287        0.60105648        0.03628305        0.00697131        0.00097741
