#  aims_uuid : F128D8B5-E5F3-407F-ADF6-DC6AC86BB935                                
#  angular momentum projected density of states for species S as calculated by FHI-aims 
# The energy reference for this output is the chemical potential, mu =      -5.106688 eV
#      Energy (eV)         total dos     l= 0              l= 1              l= 2              l= 3              l= 4
       -4.89331207        0.97099676        0.07600462        0.83530343        0.05309150        0.00602112        0.00057608
       -4.88330206        1.02596572        0.08089103        0.88206419        0.05609102        0.00631244        0.00060705
       -4.87329205        1.08125545        0.08576263        0.92921265        0.05904446        0.00659616        0.00063955
       -4.86328204        1.13640025        0.09057464        0.97635464        0.06192736        0.00687026        0.00067334
       -4.85327203        1.19091434        0.09528062        1.02307700        0.06471567        0.00713292        0.00070812
       -4.84326202        1.24429737        0.09983323        1.06895195        0.06738613        0.00738249        0.00074357
       -4.83325201        1.29604041        0.10418512        1.11354191        0.06991650        0.00761753        0.00077936
       -4.82324200        1.34563237        0.10828988        1.15640469        0.07228588        0.00783680        0.00081512
       -4.81323199        1.39256709        0.11210301        1.19709936        0.07447496        0.00803927        0.00085050
       -4.80322198        1.43635113        0.11558295        1.23519271        0.07646626        0.00822412        0.00088509
       -4.79321197        1.47651209        0.11869206        1.27026641        0.07824437        0.00839072        0.00091853
       -4.78320196        1.51260749        0.12139754        1.30192472        0.07979619        0.00853862        0.00095041
       -4.77319195        1.54423384        0.12367224        1.32980261        0.08111108        0.00866754        0.00098036
       -4.76318194        1.57103557        0.12549527        1.35357392        0.08218102        0.00877735        0.00100802
       -4.75317193        1.59271357        0.12685243        1.37295932        0.08300072        0.00886806        0.00103303
       -4.74316192        1.60903261        0.12773650        1.38773356        0.08356767        0.00893979        0.00105509
       -4.73315191        1.61982754        0.12814714        1.39773168        0.08388206        0.00899274        0.00107392
       -4.72314190        1.62500761        0.12809066        1.40285374        0.08394669        0.00902723        0.00108929
       -4.71313189        1.62455878        0.12757957        1.40306779        0.08376679        0.00904359        0.00110103
       -4.70312188        1.61854371        0.12663190        1.39841079        0.08334977        0.00904222        0.00110903
       -4.69311187        1.60709957        0.12527038        1.38898755        0.08270486        0.00902352        0.00111325
       -4.68310186        1.59043352        0.12352155        1.37496749        0.08184283        0.00898792        0.00111373
       -4.67309185        1.56881636        0.12141480        1.35657956        0.08077559        0.00893585        0.00111055
       -4.66308184        1.54257455        0.11898146        1.33410559        0.07951588        0.00886773        0.00110390
       -4.65307183        1.51208108        0.11625388        1.30787228        0.07807691        0.00878403        0.00109399
       -4.64306182        1.47774574        0.11326474        1.27824249        0.07647219        0.00868521        0.00108111
       -4.63305181        1.44000515        0.11004636        1.24560610        0.07471531        0.00857178        0.00106560
       -4.62304180        1.39931320        0.10663031        1.21037089        0.07281985        0.00844434        0.00104782
       -4.61303179        1.35613207        0.10304706        1.17295393        0.07079937        0.00830355        0.00102816
       -4.60302178        1.31092422        0.09932585        1.13377365        0.06866750        0.00815020        0.00100703
       -4.59301177        1.26414555        0.09549469        1.09324284        0.06643798        0.00798523        0.00098482
       -4.58300176        1.21623974        0.09158044        1.05176280        0.06412485        0.00780971        0.00096193
       -4.57299175        1.16763371        0.08760899        1.00971852        0.06174259        0.00762489        0.00093872
       -4.56298174        1.11873420        0.08360536        0.96747494        0.05930621        0.00743217        0.00091553
       -4.55297173        1.06992527        0.07959393        0.92537422        0.05683135        0.00723312        0.00089265
       -4.54296172        1.02156644        0.07559852        0.88373386        0.05433429        0.00702940        0.00087036
       -4.53295171        0.97399154        0.07164242        0.84284552        0.05183192        0.00682282        0.00084886
       -4.52294170        0.92750791        0.06774834        0.80297446        0.04934156        0.00661521        0.00082835
       -4.51293169        0.88239604        0.06393826        0.76435958        0.04688082        0.00640843        0.00080896
       -4.50292168        0.83890939        0.06023319        0.72721376        0.04446731        0.00620432        0.00079081
       -4.49291167        0.79727468        0.05665288        0.69172480        0.04211838        0.00600464        0.00077398
       -4.48290166        0.75769240        0.05321544        0.65805658        0.03985077        0.00581106        0.00075855
       -4.47289165        0.72033772        0.04993699        0.62635070        0.03768036        0.00562509        0.00074458
       -4.46288164        0.68536188        0.04683130        0.59672853        0.03562183        0.00544809        0.00073213
       -4.45287163        0.65289394        0.04390948        0.56929347        0.03368848        0.00528124        0.00072126
       -4.44286162        0.62304312        0.04117973        0.54413370        0.03189207        0.00512556        0.00071207
       -4.43285161        0.59590139        0.03864720        0.52132502        0.03024265        0.00498189        0.00070464
       -4.42284160        0.57154650        0.03631397        0.50093386        0.02874862        0.00485095        0.00069911
       -4.41283159        0.55004517        0.03417914        0.48302036        0.02741669        0.00473334        0.00069563
       -4.40282158        0.53145631        0.03223903        0.46764125        0.02625206        0.00462960        0.00069439
       -4.39281157        0.51583422        0.03048747        0.45485247        0.02525848        0.00454023        0.00069558
       -4.38280156        0.50323133        0.02891623        0.44471141        0.02443852        0.00446573        0.00069944
       -4.37279155        0.49370065        0.02751549        0.43727857        0.02379369        0.00440667        0.00070623
       -4.36278154        0.48729745        0.02627431        0.43261854        0.02332471        0.00436367        0.00071622
       -4.35277153        0.48408031        0.02518117        0.43080035        0.02303161        0.00433750        0.00072968
       -4.34276152        0.48411122        0.02422447        0.43189690        0.02291394        0.00432900        0.00074691
       -4.33275151        0.48745482        0.02339293        0.43598365        0.02297086        0.00433919        0.00076818
       -4.32274150        0.49417666        0.02267604        0.44313649        0.02320119        0.00436918        0.00079377
       -4.31273149        0.50434052        0.02206429        0.45342877        0.02360339        0.00442017        0.00082390
       -4.30272148        0.51800478        0.02154936        0.46692763        0.02417555        0.00449344        0.00085880
       -4.29271147        0.53521785        0.02112424        0.48368951        0.02491523        0.00459024        0.00089864
       -4.28270146        0.55601295        0.02078316        0.50375514        0.02581934        0.00471179        0.00094353
       -4.27269145        0.58040203        0.02052150        0.52714396        0.02688392        0.00485912        0.00099353
       -4.26268144        0.60836929        0.02033558        0.55384811        0.02810394        0.00503306        0.00104860
       -4.25267143        0.63986432        0.02022237        0.58382621        0.02947303        0.00523409        0.00110863
       -4.24266142        0.67479525        0.02017922        0.61699711        0.03098326        0.00546226        0.00117340
       -4.23265141        0.71302204        0.02020349        0.65323391        0.03262494        0.00571711        0.00124259
       -4.22264140        0.75435037        0.02029222        0.69235842        0.03438639        0.00599758        0.00131576
       -4.21263139        0.79852660        0.02044185        0.73413660        0.03625384        0.00630197        0.00139233
       -4.20262138        0.84523391        0.02064793        0.77827512        0.03821137        0.00662787        0.00147162
       -4.19261137        0.89409035        0.02090493        0.82441957        0.04024084        0.00697217        0.00155283
       -4.18260136        0.94464893        0.02120613        0.87215461        0.04232206        0.00733109        0.00163504
       -4.17259135        0.99640016        0.02154353        0.92100624        0.04443291        0.00770021        0.00171726
       -4.16258134        1.04877721        0.02190797        0.97044661        0.04654964        0.00807457        0.00179842
       -4.15257133        1.10116380        0.02228918        1.01990128        0.04864716        0.00844879        0.00187739
       -4.14256132        1.15290475        0.02267605        1.06875893        0.05069952        0.00881719        0.00195306
       -4.13255131        1.20331901        0.02305683        1.11638348        0.05268040        0.00917399        0.00202430
       -4.12254130        1.25171472        0.02341954        1.16212803        0.05456361        0.00951345        0.00209008
       -4.11253129        1.29740587        0.02375222        1.20535047        0.05632370        0.00983007        0.00214941
       -4.10252128        1.33972992        0.02404337        1.24542987        0.05793651        0.01011873        0.00220144
       -4.09251127        1.37806558        0.02428229        1.28178317        0.05937976        0.01037489        0.00224548
       -4.08250126        1.41185005        0.02445938        1.31388141        0.06063361        0.01059468        0.00228097
       -4.07249125        1.44059488        0.02456648        1.34126470        0.06168109        0.01077506        0.00230756
       -4.06248124        1.46389983        0.02459707        1.36355534        0.06250854        0.01091382        0.00232507
       -4.05247123        1.48146404        0.02454650        1.38046840        0.06310595        0.01100966        0.00233353
       -4.04246122        1.49309398        0.02441202        1.39181942        0.06346719        0.01106221        0.00233313
       -4.03245121        1.49870796        0.02419290        1.39752875        0.06359012        0.01107195        0.00232425
       -4.02244120        1.49833691        0.02389034        1.39762243        0.06347660        0.01104016        0.00230738
       -4.01243119        1.49212162        0.02350741        1.39222971        0.06313246        0.01096888        0.00228317
       -4.00242118        1.48030643        0.02304889        1.38157720        0.06256725        0.01086073        0.00225235
       -3.99241117        1.46322983        0.02252109        1.36598014        0.06179401        0.01071886        0.00221572
       -3.98240116        1.44131247        0.02193161        1.34583105        0.06082887        0.01054682        0.00217412
       -3.97239115        1.41504292        0.02128907        1.32158642        0.05969061        0.01034843        0.00212839
       -3.96238114        1.38496203        0.02060286        1.29375193        0.05840018        0.01012766        0.00207939
       -3.95237113        1.35164636        0.01988287        1.26286687        0.05698014        0.00988856        0.00202793
       -3.94236112        1.31569139        0.01913916        1.22948823        0.05545407        0.00963515        0.00197477
       -3.93235111        1.27769500        0.01838174        1.19417522        0.05384604        0.00937137        0.00192063
       -3.92234110        1.23824196        0.01762028        1.15747461        0.05217996        0.00910096        0.00186615
       -3.91233109        1.19788978        0.01686388        1.11990744        0.05047908        0.00882748        0.00181191
       -3.90232108        1.15715643        0.01612087        1.08195749        0.04876546        0.00855421        0.00175840
       -3.89231107        1.11651022        0.01539863        1.04406185        0.04705954        0.00828415        0.00170605
       -3.88230106        1.07636221        0.01470343        1.00660381        0.04537975        0.00802000        0.00165522
       -3.87229105        1.03706116        0.01404036        0.96990824        0.04374227        0.00776411        0.00160618
       -3.86228104        0.99889124        0.01341324        0.93423951        0.04216082        0.00751851        0.00155916
       -3.85227103        0.96207233        0.01282465        0.89980187        0.04064662        0.00728487        0.00151432
       -3.84226102        0.92676279        0.01227594        0.86674217        0.03920839        0.00706453        0.00147176
       -3.83225101        0.89306444        0.01176733        0.83515457        0.03785252        0.00685849        0.00143153
       -3.82224100        0.86102935        0.01129802        0.80508703        0.03658323        0.00666744        0.00139363
       -3.81223099        0.83066804        0.01086634        0.77654901        0.03540289        0.00649175        0.00135804
       -3.80222098        0.80195849        0.01046998        0.74951995        0.03431233        0.00633153        0.00132469
       -3.79221097        0.77485554        0.01010614        0.72395813        0.03331117        0.00618662        0.00129349
       -3.78220096        0.74930000        0.00977174        0.69980912        0.03239817        0.00605667        0.00126431
       -3.77219095        0.72522704        0.00946364        0.67701370        0.03157155        0.00594112        0.00123703
       -3.76218094        0.70257347        0.00917883        0.65551457        0.03082925        0.00583931        0.00121151
       -3.75217093        0.68128339        0.00891453        0.63526167        0.03016914        0.00575043        0.00118762
       -3.74216092        0.66131220        0.00866837        0.61621583        0.02958913        0.00567365        0.00116522
       -3.73215091        0.64262872        0.00843843        0.59835073        0.02908729        0.00560807        0.00114420
       -3.72214090        0.62521548        0.00822333        0.58165310        0.02866179        0.00555282        0.00112443
       -3.71213089        0.60906733        0.00802215        0.56612142        0.02831086        0.00550706        0.00110585
       -3.70212088        0.59418864        0.00783446        0.55176321        0.02803264        0.00546996        0.00108837
       -3.69211087        0.58058942        0.00766023        0.53859136        0.02782508        0.00544081        0.00107195
       -3.68210086        0.56828069        0.00749972        0.52661972        0.02768575        0.00541893        0.00105657
       -3.67209085        0.55726949        0.00735337        0.51585847        0.02761169        0.00540373        0.00104223
       -3.66208084        0.54755409        0.00722169        0.50630946        0.02759930        0.00539469        0.00102895
       -3.65207083        0.53911949        0.00710513        0.49796201        0.02764422        0.00539138        0.00101675
       -3.64206082        0.53193379        0.00700395        0.49078943        0.02774134        0.00539338        0.00100568
       -3.63205081        0.52594545        0.00691817        0.48474639        0.02788478        0.00540032        0.00099579
       -3.62204080        0.52108183        0.00684744        0.47976744        0.02806794        0.00541187        0.00098712
       -3.61203079        0.51724887        0.00679104        0.47576673        0.02828371        0.00542767        0.00097972
       -3.60202078        0.51433213        0.00674778        0.47263885        0.02852452        0.00544735        0.00097362
       -3.59201077        0.51219900        0.00671610        0.47026091        0.02878264        0.00547051        0.00096883
       -3.58200076        0.51070197        0.00669403        0.46849560        0.02905031        0.00549670        0.00096534
       -3.57199075        0.50968283        0.00667924        0.46719506        0.02932001        0.00552540        0.00096312
       -3.56198074        0.50897745        0.00666915        0.46620551        0.02958463        0.00555605        0.00096212
       -3.55197073        0.50842106        0.00666099        0.46537214        0.02983764        0.00558803        0.00096225
       -3.54196072        0.50785345        0.00665192        0.46454422        0.03007326        0.00562067        0.00096339
       -3.53195071        0.50712418        0.00663910        0.46357995        0.03028650        0.00565323        0.00096541
       -3.52194070        0.50609718        0.00661982        0.46235101        0.03047324        0.00568498        0.00096813
       -3.51193069        0.50465471        0.00659160        0.46074637        0.03063020        0.00571517        0.00097136
       -3.50192068        0.50270045        0.00655223        0.45867534        0.03075492        0.00574305        0.00097490
       -3.49191067        0.50016158        0.00649993        0.45606958        0.03084564        0.00576790        0.00097854
       -3.48190066        0.49698975        0.00643331        0.45288417        0.03090119        0.00578904        0.00098203
       -3.47189065        0.49316105        0.00635150        0.44909762        0.03092092        0.00580585        0.00098517
       -3.46188064        0.48867502        0.00625407        0.44471091        0.03090454        0.00581779        0.00098771
       -3.45187063        0.48355283        0.00614112        0.43974581        0.03085203        0.00582442        0.00098944
       -3.44186062        0.47783485        0.00601321        0.43424249        0.03076360        0.00582537        0.00099018
       -3.43185061        0.47157790        0.00587131        0.42825678        0.03063965        0.00582042        0.00098974
       -3.42184060        0.46485233        0.00571681        0.42185731        0.03048078        0.00580945        0.00098799
       -3.41183059        0.45773923        0.00555143        0.41512262        0.03028788        0.00579250        0.00098480
       -3.40182058        0.45032794        0.00537716        0.40813868        0.03006224        0.00576975        0.00098012
       -3.39181057        0.44271408        0.00519621        0.40099670        0.02980571        0.00574153        0.00097392
       -3.38180056        0.43499806        0.00501099        0.39379162        0.02952086        0.00570837        0.00096623
       -3.37179055        0.42728433        0.00482400        0.38662108        0.02921116        0.00567097        0.00095712
       -3.36178054        0.41968102        0.00463784        0.37958501        0.02888122        0.00563021        0.00094674
