#  aims_uuid : F128D8B5-E5F3-407F-ADF6-DC6AC86BB935                                
#  angular momentum projected density of states for species S as calculated by FHI-aims 
# The energy reference for this output is the vacuum level =       0.000000 eV
#      Energy (eV)         total dos     l= 0              l= 1              l= 2              l= 3              l= 4
      -10.00000000        1.03983486        0.07036989        0.91185131        0.05103947        0.00595013        0.00062406
       -9.98998999        1.08537348        0.07416425        0.95071217        0.05359809        0.00624770        0.00065127
       -9.97997998        1.13010621        0.07786645        0.98892712        0.05609425        0.00653900        0.00067939
       -9.96996997        1.17361082        0.08145452        1.02612039        0.05850562        0.00682210        0.00070819
       -9.95995996        1.21548694        0.08490828        1.06193547        0.06081057        0.00709515        0.00073746
       -9.94994995        1.25536327        0.08820946        1.09604202        0.06298844        0.00735638        0.00076698
       -9.93993994        1.29290347        0.09134165        1.12814142        0.06501979        0.00760409        0.00079652
       -9.92992993        1.32781032        0.09429027        1.15797076        0.06688675        0.00783669        0.00082584
       -9.91991992        1.35982847        0.09704248        1.18530544        0.06857317        0.00805265        0.00085472
       -9.90990991        1.38874575        0.09958706        1.20996033        0.07006489        0.00825055        0.00088292
       -9.89989990        1.41439323        0.10191429        1.23178979        0.07134990        0.00842906        0.00091019
       -9.88988989        1.43664420        0.10401586        1.25068652        0.07241856        0.00858696        0.00093630
       -9.87987988        1.45541229        0.10588470        1.26657971        0.07326370        0.00872318        0.00096100
       -9.86986987        1.47064890        0.10751494        1.27943234        0.07388076        0.00883679        0.00098408
       -9.85985986        1.48234007        0.10890176        1.28923816        0.07426782        0.00892702        0.00100530
       -9.84984985        1.49050304        0.11004131        1.29601832        0.07442564        0.00899332        0.00102446
       -9.83983984        1.49518266        0.11093064        1.29981778        0.07435755        0.00903533        0.00104136
       -9.82982983        1.49644768        0.11156759        1.30070188        0.07406944        0.00905293        0.00105585
       -9.81981982        1.49438723        0.11195076        1.29875299        0.07356948        0.00904621        0.00106779
       -9.80980981        1.48910749        0.11207948        1.29406744        0.07286798        0.00901552        0.00107708
       -9.79979980        1.48072877        0.11195377        1.28675286        0.07197707        0.00896142        0.00108365
       -9.78978979        1.46938306        0.11157438        1.27692604        0.07091043        0.00888472        0.00108749
       -9.77977978        1.45521206        0.11094287        1.26471121        0.06968297        0.00878641        0.00108861
       -9.76976977        1.43836585        0.11006169        1.25023895        0.06831045        0.00866770        0.00108707
       -9.75975976        1.41900210        0.10893434        1.23364558        0.06680925        0.00852995        0.00108297
       -9.74974975        1.39728572        0.10756554        1.21507299        0.06519604        0.00837471        0.00107645
       -9.73973974        1.37338900        0.10596146        1.19466875        0.06348750        0.00820362        0.00106767
       -9.72972973        1.34749180        0.10412986        1.17258648        0.06170014        0.00801848        0.00105685
       -9.71971972        1.31978196        0.10208036        1.14898615        0.05985011        0.00782116        0.00104418
       -9.70970971        1.29045540        0.09982455        1.12403427        0.05795305        0.00761362        0.00102991
       -9.69969970        1.25971600        0.09737608        1.09790374        0.05602401        0.00739787        0.00101430
       -9.68968969        1.22777488        0.09475073        1.07077325        0.05407733        0.00717598        0.00099758
       -9.67967968        1.19484922        0.09196633        1.04282622        0.05212664        0.00695002        0.00098001
       -9.66966967        1.16116044        0.08904260        1.01424917        0.05018476        0.00672206        0.00096185
       -9.65965966        1.12693179        0.08600090        0.98522976        0.04826367        0.00649414        0.00094332
       -9.64964965        1.09238568        0.08286389        0.95595436        0.04637449        0.00626826        0.00092467
       -9.63963964        1.05774067        0.07965516        0.92660565        0.04452743        0.00604631        0.00090611
       -9.62962963        1.02320860        0.07639871        0.89736020        0.04273177        0.00583008        0.00088784
       -9.61961962        0.98899202        0.07311853        0.86838645        0.04099577        0.00562122        0.00087005
       -9.60960961        0.95528214        0.06983805        0.83984324        0.03932675        0.00542119        0.00085291
       -9.59959960        0.92225761        0.06657975        0.81187898        0.03773098        0.00523130        0.00083659
       -9.58958959        0.89008424        0.06336476        0.78463183        0.03621381        0.00505261        0.00082124
       -9.57957958        0.85891573        0.06021249        0.75823064        0.03477960        0.00488601        0.00080700
       -9.56956957        0.82889532        0.05714046        0.73279681        0.03343190        0.00473214        0.00079402
       -9.55955956        0.80015839        0.05416418        0.70844686        0.03217346        0.00459145        0.00078243
       -9.54954955        0.77283562        0.05129707        0.68529551        0.03100644        0.00446420        0.00077239
       -9.53953954        0.74705657        0.04855057        0.66345901        0.02993249        0.00435046        0.00076404
       -9.52952953        0.72295330        0.04593424        0.64305842        0.02895292        0.00425019        0.00075753
       -9.51951952        0.70066363        0.04345601        0.62422248        0.02806887        0.00416322        0.00075305
       -9.50950951        0.68033379        0.04112238        0.60708989        0.02728146        0.00408930        0.00075076
       -9.49949950        0.66212014        0.03893868        0.59181053        0.02659192        0.00402816        0.00075085
       -9.48948949        0.64618965        0.03690933        0.57854557        0.02600167        0.00397954        0.00075353
       -9.47947948        0.63271903        0.03503806        0.56746632        0.02551244        0.00394320        0.00075901
       -9.46946947        0.62189244        0.03332804        0.55875163        0.02512628        0.00391901        0.00076749
       -9.45945946        0.61389771        0.03178208        0.55258404        0.02484552        0.00390690        0.00077918
       -9.44944945        0.60892120        0.03040261        0.54914458        0.02467278        0.00390695        0.00079428
       -9.43943944        0.60714145        0.02919168        0.54860659        0.02461081        0.00391939        0.00081298
       -9.42942943        0.60872190        0.02815089        0.55112860        0.02466237        0.00394458        0.00083546
       -9.41941942        0.61380283        0.02728120        0.55684671        0.02483005        0.00398302        0.00086184
       -9.40940941        0.62249303        0.02658278        0.56586663        0.02511603        0.00403535        0.00089225
       -9.39939940        0.63486140        0.02605470        0.57825581        0.02552186        0.00410229        0.00092675
       -9.38938939        0.65092895        0.02569470        0.59403606        0.02604818        0.00418466        0.00096534
       -9.37937938        0.67066154        0.02549891        0.61317685        0.02669449        0.00428328        0.00100800
       -9.36936937        0.69396373        0.02546160        0.63558972        0.02745885        0.00439894        0.00105462
       -9.35935936        0.72067415        0.02557494        0.66112418        0.02833766        0.00453234        0.00110503
       -9.34934935        0.75056252        0.02582887        0.68956519        0.02932546        0.00468401        0.00115900
       -9.33933934        0.78332888        0.02621098        0.72063267        0.03041477        0.00485426        0.00121620
       -9.32932933        0.81860484        0.02670653        0.75398296        0.03159600        0.00504311        0.00127625
       -9.31931932        0.85595738        0.02729857        0.78921256        0.03285738        0.00525019        0.00133868
       -9.30930931        0.89489485        0.02796809        0.82586397        0.03418506        0.00547476        0.00140297
       -9.29929930        0.93487530        0.02869441        0.86343359        0.03556322        0.00571558        0.00146851
       -9.28928929        0.97531697        0.02945549        0.90138163        0.03697424        0.00597096        0.00153465
       -9.27927928        1.01561048        0.03022852        0.93914353        0.03839907        0.00623869        0.00160068
       -9.26926927        1.05513263        0.03099041        0.97614274        0.03981752        0.00651610        0.00166586
       -9.25925926        1.09326100        0.03171840        1.01180435        0.04120877        0.00680003        0.00172945
       -9.24924925        1.12938921        0.03239070        1.04556912        0.04255175        0.00708697        0.00179066
       -9.23923924        1.16294198        0.03298705        1.07690738        0.04382576        0.00737303        0.00184875
       -9.22922923        1.19338966        0.03348930        1.10533236        0.04501090        0.00765410        0.00190299
       -9.21921922        1.22026156        0.03388189        1.13041239        0.04608866        0.00792594        0.00195268
       -9.20920921        1.24315768        0.03415221        1.15178165        0.04704234        0.00818427        0.00199720
       -9.19919920        1.26175836        0.03429093        1.16914898        0.04785757        0.00842489        0.00203599
       -9.18918919        1.27583163        0.03429209        1.18230448        0.04852264        0.00864384        0.00206858
       -9.17917918        1.28523791        0.03415318        1.19112386        0.04902881        0.00883749        0.00209457
       -9.16916917        1.28993204        0.03387499        1.19557018        0.04937055        0.00900263        0.00211370
       -9.15915916        1.28996266        0.03346144        1.19569319        0.04954566        0.00913659        0.00212578
       -9.14914915        1.28546893        0.03291924        1.19162628        0.04955532        0.00923734        0.00213075
       -9.13913914        1.27667480        0.03225753        1.18358115        0.04940396        0.00930350        0.00212865
       -9.12912913        1.26388119        0.03148742        1.17184051        0.04909920        0.00933442        0.00211964
       -9.11911912        1.24745621        0.03062156        1.15674900        0.04865152        0.00933017        0.00210395
       -9.10910911        1.22782392        0.02967366        1.13870273        0.04807400        0.00929158        0.00208195
       -9.09909910        1.20545185        0.02865805        1.11813768        0.04738191        0.00922016        0.00205406
       -9.08908909        1.18083780        0.02758930        1.09551739        0.04659226        0.00911806        0.00202079
       -9.07907908        1.15449626        0.02648186        1.07132025        0.04572338        0.00898804        0.00198273
       -9.06906907        1.12694477        0.02534975        1.04602680        0.04479436        0.00883335        0.00194051
       -9.05905906        1.09869067        0.02420634        1.02010732        0.04382454        0.00865765        0.00189481
       -9.04904905        1.07021864        0.02306418        0.99401017        0.04283306        0.00846489        0.00184633
       -9.03903904        1.04197928        0.02193486        0.96815110        0.04183833        0.00825920        0.00179579
       -9.02902903        1.01437907        0.02082892        0.94290392        0.04085756        0.00804477        0.00174390
       -9.01901902        0.98777212        0.01975581        0.91859280        0.03990641        0.00782574        0.00169136
       -9.00900901        0.96245372        0.01872383        0.89548637        0.03899862        0.00760607        0.00163883
       -8.99899900        0.93865614        0.01774017        0.87379383        0.03814576        0.00738945        0.00158693
       -8.98898899        0.91654655        0.01681083        0.85366328        0.03735700        0.00717921        0.00153623
       -8.97897898        0.89622722        0.01594068        0.83518201        0.03663907        0.00697825        0.00148722
       -8.96896897        0.87773793        0.01513342        0.81837902        0.03599622        0.00678895        0.00144032
       -8.95895896        0.86106036        0.01439164        0.80322940        0.03543029        0.00661318        0.00139586
       -8.94894895        0.84612434        0.01371680        0.78966035        0.03494087        0.00645224        0.00135409
       -8.93893894        0.83281554        0.01310927        0.77755866        0.03452554        0.00630690        0.00131518
       -8.92892893        0.82098427        0.01256838        0.76677910        0.03418016        0.00617740        0.00127922
       -8.91891892        0.81045493        0.01209250        0.75715350        0.03389921        0.00606350        0.00124622
       -8.90890891        0.80103582        0.01167908        0.74849994        0.03367611        0.00596457        0.00121612
       -8.89889890        0.79252863        0.01132479        0.74063176        0.03350366        0.00587960        0.00118882
       -8.88888889        0.78473751        0.01102562        0.73336603        0.03337439        0.00580733        0.00116415
       -8.87887888        0.77747719        0.01077703        0.72653105        0.03328085        0.00574634        0.00114193
       -8.86886887        0.77057995        0.01057408        0.71997281        0.03321601        0.00569509        0.00112196
       -8.85885886        0.76390123        0.01041162        0.71356009        0.03317347        0.00565204        0.00110402
       -8.84884885        0.75732384        0.01028440        0.70718816        0.03314767        0.00561571        0.00108790
       -8.83883884        0.75076059        0.01018725        0.70078111        0.03313408        0.00558475        0.00107340
       -8.82882883        0.74415549        0.01011518        0.69429272        0.03312924        0.00555798        0.00106036
       -8.81881882        0.73748343        0.01006355        0.68770599        0.03313081        0.00553445        0.00104862
       -8.80880881        0.73074863        0.01002812        0.68103144        0.03313755        0.00551344        0.00103808
       -8.79879880        0.72398179        0.01000516        0.67430428        0.03314922        0.00549448        0.00102864
       -8.78878879        0.71723613        0.00999146        0.66758061        0.03316645        0.00547734        0.00102027
       -8.77877878        0.71058258        0.00998437        0.66093269        0.03319058        0.00546200        0.00101295
       -8.76876877        0.70410415        0.00998176        0.65444357        0.03322347        0.00544866        0.00100669
       -8.75875876        0.69788972        0.00998205        0.64820124        0.03326725        0.00543765        0.00100152
       -8.74874875        0.69202752        0.00998408        0.64229242        0.03332410        0.00542942        0.00099751
       -8.73873874        0.68659852        0.00998708        0.63679627        0.03339599        0.00542446        0.00099472
       -8.72872873        0.68166998        0.00999058        0.63177843        0.03348446        0.00542330        0.00099321
       -8.71871872        0.67728957        0.00999430        0.62728542        0.03359042        0.00542639        0.00099305
       -8.70870871        0.67348033        0.00999809        0.62333997        0.03371387        0.00543411        0.00099429
       -8.69869870        0.67023677        0.01000180        0.61993744        0.03385384        0.00544671        0.00099697
       -8.68868869        0.66752248        0.01000525        0.61704365        0.03400822        0.00546426        0.00100110
       -8.67867868        0.66526949        0.01000812        0.61459434        0.03417370        0.00548667        0.00100666
       -8.66866867        0.66337938        0.01000995        0.61249642        0.03434578        0.00551363        0.00101360
       -8.65865866        0.66172645        0.01001007        0.61063108        0.03451887        0.00554462        0.00102182
       -8.64864865        0.66016261        0.01000764        0.60885851        0.03468632        0.00557894        0.00103120
       -8.63863864        0.65852393        0.01000163        0.60702429        0.03484072        0.00561571        0.00104158
       -8.62862863        0.65663844        0.00999089        0.60496690        0.03497404        0.00565387        0.00105275
       -8.61861862        0.65433485        0.00997415        0.60252598        0.03507797        0.00569225        0.00106449
       -8.60860861        0.65145147        0.00995017        0.59955096        0.03514420        0.00572960        0.00107654
       -8.59859860        0.64784498        0.00991773        0.59590926        0.03516477        0.00576461        0.00108861
       -8.58858859        0.64339833        0.00987574        0.59149387        0.03513235        0.00579596        0.00110040
       -8.57857858        0.63802738        0.00982331        0.58622947        0.03504058        0.00582240        0.00111162
       -8.56856857        0.63168585        0.00975979        0.58007701        0.03488435        0.00584273        0.00112195
       -8.55855856        0.62436816        0.00968486        0.57303626        0.03466003        0.00585590        0.00113111
       -8.54854855        0.61611027        0.00959851        0.56514628        0.03436567        0.00586098        0.00113882
       -8.53853854        0.60698826        0.00950112        0.55648390        0.03400112        0.00585729        0.00114482
       -8.52852853        0.59711499        0.00939340        0.54716020        0.03356815        0.00584435        0.00114890
       -8.51851852        0.58663511        0.00927641        0.53731543        0.03307045        0.00582191        0.00115091
       -8.50850851        0.57571864        0.00915155        0.52711275        0.03251360        0.00579004        0.00115071
       -8.49849850        0.56455388        0.00902048        0.51673107        0.03190500        0.00574907        0.00114826
       -8.48848849        0.55333977        0.00888514        0.50635771        0.03125373        0.00569962        0.00114356
       -8.47847848        0.54227847        0.00874763        0.49618112        0.03057038        0.00564264        0.00113670
       -8.46846847        0.53156836        0.00861025        0.48638413        0.02986683        0.00557934        0.00112781
