#  aims_uuid : F128D8B5-E5F3-407F-ADF6-DC6AC86BB935                                
#  angular momentum projected density of states for species S as calculated by FHI-aims 
# The energy reference for this output is the chemical potential, mu =      -5.106688 eV
#      Energy (eV)         total dos     l= 0              l= 1              l= 2              l= 3              l= 4
       -4.89331207        0.98989175        0.07691188        0.85050043        0.05531827        0.00653479        0.00062638
       -4.88330206        1.03988360        0.08142164        0.89274929        0.05820590        0.00685185        0.00065494
       -4.87329205        1.08973787        0.08589904        0.93498501        0.06101265        0.00715639        0.00068477
       -4.86328204        1.13907229        0.09031408        0.97688136        0.06371524        0.00744592        0.00071570
       -4.85327203        1.18749507        0.09463571        1.01810231        0.06629131        0.00771817        0.00074756
       -4.84326202        1.23460704        0.09883196        1.05830410        0.06871961        0.00797124        0.00078014
       -4.83325201        1.28000408        0.10286994        1.09713721        0.07098020        0.00820350        0.00081323
       -4.82324200        1.32327991        0.10671608        1.13424895        0.07305459        0.00841366        0.00084662
       -4.81323199        1.36402973        0.11033646        1.16928657        0.07492587        0.00860077        0.00088005
       -4.80322198        1.40185477        0.11369719        1.20190126        0.07657887        0.00876416        0.00091329
       -4.79321197        1.43636804        0.11676505        1.23175318        0.07800028        0.00890347        0.00094606
       -4.78320196        1.46720108        0.11950818        1.25851741        0.07917883        0.00901858        0.00097808
       -4.77319195        1.49401167        0.12189681        1.28189070        0.08010545        0.00910965        0.00100905
       -4.76318194        1.51649210        0.12390414        1.30159884        0.08077345        0.00917700        0.00103868
       -4.75317193        1.53437760        0.12550709        1.31740407        0.08117862        0.00922116        0.00106666
       -4.74316192        1.54745434        0.12668710        1.32911230        0.08131945        0.00924280        0.00109270
       -4.73315191        1.55556660        0.12743071        1.33657953        0.08119715        0.00924272        0.00111649
       -4.72314190        1.55862251        0.12773010        1.33971711        0.08081573        0.00922179        0.00113778
       -4.71313189        1.55659799        0.12758329        1.33849541        0.08018200        0.00918099        0.00115631
       -4.70312188        1.54953865        0.12699430        1.33294573        0.07930545        0.00912130        0.00117187
       -4.69311187        1.53755947        0.12597303        1.32316025        0.07819814        0.00904376        0.00118429
       -4.68310186        1.52084235        0.12453495        1.30929009        0.07687445        0.00894942        0.00119344
       -4.67309185        1.49963176        0.12270066        1.29154166        0.07535087        0.00883931        0.00119925
       -4.66308184        1.47422864        0.12049536        1.27017149        0.07364563        0.00871449        0.00120167
       -4.65307183        1.44498317        0.11794818        1.24547986        0.07177839        0.00857599        0.00120074
       -4.64306182        1.41228657        0.11509153        1.21780375        0.06976992        0.00842483        0.00119653
       -4.63305181        1.37656252        0.11196038        1.18750922        0.06764170        0.00826205        0.00118917
       -4.62304180        1.33825849        0.10859166        1.15498370        0.06541562        0.00808871        0.00117881
       -4.61303179        1.29783715        0.10502355        1.12062840        0.06311368        0.00790586        0.00116565
       -4.60302178        1.25576818        0.10129496        1.08485099        0.06075766        0.00771462        0.00114995
       -4.59301177        1.21252053        0.09744487        1.04805859        0.05836893        0.00751616        0.00113197
       -4.58300176        1.16855506        0.09351187        1.01065132        0.05596819        0.00731170        0.00111200
       -4.57299175        1.12431773        0.08953356        0.97301609        0.05357524        0.00710251        0.00109033
       -4.56298174        1.08023321        0.08554607        0.93552102        0.05120886        0.00688995        0.00106730
       -4.55297173        1.03669891        0.08158350        0.89851018        0.04888657        0.00667543        0.00104323
       -4.54296172        0.99407968        0.07767744        0.86229889        0.04662450        0.00646040        0.00101844
       -4.53295171        0.95270300        0.07385645        0.82716971        0.04443724        0.00624634        0.00099326
       -4.52294170        0.91285519        0.07014564        0.79336911        0.04233769        0.00603473        0.00096801
       -4.51293169        0.87477852        0.06656630        0.76110521        0.04033695        0.00582705        0.00094301
       -4.50292168        0.83866980        0.06313562        0.73054668        0.03844423        0.00562471        0.00091855
       -4.49291167        0.80468034        0.05986654        0.70182297        0.03666681        0.00542908        0.00089495
       -4.48290166        0.77291774        0.05676776        0.67502606        0.03501005        0.00524140        0.00087247
       -4.47289165        0.74344939        0.05384393        0.65021382        0.03347742        0.00506282        0.00085139
       -4.46288164        0.71630771        0.05109592        0.62741479        0.03207064        0.00489437        0.00083199
       -4.45287163        0.69149701        0.04852130        0.60663439        0.03078987        0.00473694        0.00081450
       -4.44286162        0.66900164        0.04611497        0.58786223        0.02963394        0.00459130        0.00079919
       -4.43285161        0.64879497        0.04386979        0.57108014        0.02860066        0.00445810        0.00078628
       -4.42284160        0.63084884        0.04177732        0.55627047        0.02768716        0.00433787        0.00077601
       -4.41283159        0.61514284        0.03982860        0.54342426        0.02689027        0.00423109        0.00076862
       -4.40282158        0.60167280        0.03801480        0.53254866        0.02620685        0.00413817        0.00076432
       -4.39281157        0.59045811        0.03632786        0.52367319        0.02563422        0.00405948        0.00076335
       -4.38280156        0.58154726        0.03476099        0.51685447        0.02517045        0.00399542        0.00076593
       -4.37279155        0.57502129        0.03330901        0.51217895        0.02481463        0.00394641        0.00077228
       -4.36278154        0.57099483        0.03196858        0.50976355        0.02456713        0.00391295        0.00078262
       -4.35277153        0.56961470        0.03073823        0.50975403        0.02442966        0.00389561        0.00079716
       -4.34276152        0.57105590        0.02961825        0.51232106        0.02440538        0.00389511        0.00081611
       -4.33275151        0.57551525        0.02861039        0.51765421        0.02449875        0.00391224        0.00083965
       -4.32274150        0.58320280        0.02771753        0.52595390        0.02471543        0.00394798        0.00086797
       -4.31273149        0.59433141        0.02694317        0.53742170        0.02506195        0.00400339        0.00090120
       -4.30272148        0.60910480        0.02629090        0.55224937        0.02554540        0.00407966        0.00093947
       -4.29271147        0.62770455        0.02576385        0.57060689        0.02617293        0.00417803        0.00098286
       -4.28270146        0.65027661        0.02536411        0.59263006        0.02695127        0.00429978        0.00103139
       -4.27269145        0.67691769        0.02509221        0.61840813        0.02788615        0.00444616        0.00108506
       -4.26268144        0.70766234        0.02494665        0.64797189        0.02898174        0.00461831        0.00114376
       -4.25267143        0.74247095        0.02492356        0.68128282        0.03024006        0.00481718        0.00120733
       -4.24266142        0.78121961        0.02501642        0.71822375        0.03166046        0.00504345        0.00127553
       -4.23265141        0.82369212        0.02521595        0.75859163        0.03323912        0.00529740        0.00134802
       -4.22264140        0.86957481        0.02551009        0.80209282        0.03496869        0.00557885        0.00142436
       -4.21263139        0.91845463        0.02588414        0.84834136        0.03683804        0.00588707        0.00150402
       -4.20262138        0.96982085        0.02632111        0.89686063        0.03883209        0.00622065        0.00158637
       -4.19261137        1.02307066        0.02680202        0.94708851        0.04093191        0.00657753        0.00167068
       -4.18260136        1.07751875        0.02730652        0.99838632        0.04311490        0.00695488        0.00175613
       -4.17259135        1.13241082        0.02781342        1.05005128        0.04535516        0.00734915        0.00184180
       -4.16258134        1.18694060        0.02830136        1.10133240        0.04762402        0.00775607        0.00192674
       -4.15257133        1.24027000        0.02874954        1.15144912        0.04989070        0.00817071        0.00200992
       -4.14256132        1.29155160        0.02913833        1.19961226        0.05212313        0.00858759        0.00209029
       -4.13255131        1.33995256        0.02944994        1.24504626        0.05428877        0.00900081        0.00216678
       -4.12254130        1.38467892        0.02966898        1.28701188        0.05635552        0.00940417        0.00223836
       -4.11253129        1.42499915        0.02978293        1.32482820        0.05829261        0.00979139        0.00230402
       -4.10252128        1.46026591        0.02978243        1.35789291        0.06007145        0.01015629        0.00236283
       -4.09251127        1.48993480        0.02966154        1.38569993        0.06166641        0.01049298        0.00241394
       -4.08250126        1.51357934        0.02941778        1.40785347        0.06305544        0.01079604        0.00245661
       -4.07249125        1.53090142        0.02905203        1.42407780        0.06422061        0.01106073        0.00249025
       -4.06248124        1.54173669        0.02856833        1.43422240        0.06514842        0.01128314        0.00251441
       -4.05247123        1.54605499        0.02797357        1.43826235        0.06583002        0.01146027        0.00252878
       -4.04246122        1.54395567        0.02727706        1.43629395        0.06626121        0.01159021        0.00253324
       -4.03245121        1.53565848        0.02649008        1.42852616        0.06644234        0.01167208        0.00252782
       -4.02244120        1.52149056        0.02562532        1.41526837        0.06637801        0.01170613        0.00251273
       -4.01243119        1.50187051        0.02469644        1.39691534        0.06607677        0.01169364        0.00248832
       -4.00242118        1.47729037        0.02371751        1.37393026        0.06555064        0.01163686        0.00245510
       -3.99241117        1.44829671        0.02270259        1.34682682        0.06481467        0.01153894        0.00241370
       -3.98240116        1.41547152        0.02166534        1.31615126        0.06388635        0.01140370        0.00236488
       -3.97239115        1.37941407        0.02061868        1.28246521        0.06278516        0.01123555        0.00230946
       -3.96238114        1.34072418        0.01957454        1.24632993        0.06153206        0.01103929        0.00224836
       -3.95237113        1.29998759        0.01854370        1.20829254        0.06014892        0.01081991        0.00218253
       -3.94236112        1.25776371        0.01753567        1.16887451        0.05865816        0.01058243        0.00211294
       -3.93235111        1.21457579        0.01655867        1.12856259        0.05708224        0.01033173        0.00204056
       -3.92234110        1.17090372        0.01561960        1.08780207        0.05544330        0.01007242        0.00196633
       -3.91233109        1.12717908        0.01472413        1.04699231        0.05376281        0.00980868        0.00189114
       -3.90232108        1.08378237        0.01387675        1.00648441        0.05206118        0.00954420        0.00181583
       -3.89231107        1.04104214        0.01308087        0.96658053        0.05035753        0.00928208        0.00174113
       -3.88230106        0.99923559        0.01233893        0.92753475        0.04866938        0.00902482        0.00166770
       -3.87229105        0.95859064        0.01165252        0.88955522        0.04701250        0.00877430        0.00159610
       -3.86228104        0.91928893        0.01102244        0.85280724        0.04540068        0.00853179        0.00152678
       -3.85227103        0.88146980        0.01044886        0.81741713        0.04384570        0.00829804        0.00146007
       -3.84226102        0.84523482        0.00993134        0.78347669        0.04235725        0.00807331        0.00139623
       -3.83225101        0.81065297        0.00946898        0.75104813        0.04094297        0.00785747        0.00133542
       -3.82224100        0.77776600        0.00906042        0.72016919        0.03960858        0.00765009        0.00127771
       -3.81223099        0.74659410        0.00870394        0.69085844        0.03835802        0.00745057        0.00122312
       -3.80222098        0.71714142        0.00839750        0.66312043        0.03719366        0.00725822        0.00117161
       -3.79221097        0.68940144        0.00813879        0.63695065        0.03611656        0.00707235        0.00112310
       -3.78220096        0.66336186        0.00792523        0.61233999        0.03512678        0.00689235        0.00107750
       -3.77219095        0.63900880        0.00775403        0.58927863        0.03422362        0.00671779        0.00103472
       -3.76218094        0.61633021        0.00762219        0.56775901        0.03340592        0.00654844        0.00099465
       -3.75217093        0.59531824        0.00752652        0.54777795        0.03267226        0.00638430        0.00095722
       -3.74216092        0.57597046        0.00746362        0.52933769        0.03202119        0.00622561        0.00092235
       -3.73215091        0.55828991        0.00742997        0.51244580        0.03145130        0.00607283        0.00089002
       -3.72214090        0.54228405        0.00742182        0.49711407        0.03096131        0.00592665        0.00086020
       -3.71213089        0.52796253        0.00743533        0.48335638        0.03055004        0.00578789        0.00083290
       -3.70212088        0.51533418        0.00746650        0.47118572        0.03021634        0.00565749        0.00080813
       -3.69211087        0.50440315        0.00751123        0.46061062        0.02995896        0.00553641        0.00078592
       -3.68210086        0.49516475        0.00756540        0.45163106        0.02977634        0.00542563        0.00076632
       -3.67209085        0.48760105        0.00762483        0.44423435        0.02966650        0.00532602        0.00074934
       -3.66208084        0.48167660        0.00768544        0.43839103        0.02962677        0.00523835        0.00073502
       -3.65207083        0.47733464        0.00774323        0.43405125        0.02965362        0.00516319        0.00072335
       -3.64206082        0.47449398        0.00779442        0.43114177        0.02974257        0.00510090        0.00071431
       -3.63205081        0.47304686        0.00783547        0.42956387        0.02988801        0.00505163        0.00070787
       -3.62204080        0.47285792        0.00786315        0.42919231        0.03008322        0.00501527        0.00070396
       -3.61203079        0.47376453        0.00787465        0.42987558        0.03032034        0.00499146        0.00070249
       -3.60202078        0.47557852        0.00786756        0.43143749        0.03059053        0.00497960        0.00070334
       -3.59201077        0.47808934        0.00783997        0.43368010        0.03088404        0.00497888        0.00070635
       -3.58200076        0.48106860        0.00779044        0.43638801        0.03119048        0.00498829        0.00071138
       -3.57199075        0.48427594        0.00771808        0.43933390        0.03149908        0.00500665        0.00071823
       -3.56198074        0.48746591        0.00762247        0.44228509        0.03179896        0.00503268        0.00072669
       -3.55197073        0.49039569        0.00750371        0.44501094        0.03207948        0.00506499        0.00073657
       -3.54196072        0.49283330        0.00736236        0.44729065        0.03233050        0.00510215        0.00074764
       -3.53195071        0.49456583        0.00719943        0.44892125        0.03254277        0.00514272        0.00075966
       -3.52194070        0.49540730        0.00701631        0.44972517        0.03270812        0.00518530        0.00077240
       -3.51193069        0.49520582        0.00681479        0.44955715        0.03281975        0.00522852        0.00078562
       -3.50192068        0.49384941        0.00659694        0.44830991        0.03287236        0.00527113        0.00079907
       -3.49191067        0.49127032        0.00636516        0.44591837        0.03286229        0.00531199        0.00081251
       -3.48190066        0.48744741        0.00612205        0.44236205        0.03278755        0.00535005        0.00082571
       -3.47189065        0.48240660        0.00587042        0.43766549        0.03264781        0.00538446        0.00083841
       -3.46188064        0.47621905        0.00561322        0.43189665        0.03244432        0.00541448        0.00085039
       -3.45187063        0.46899750        0.00535352        0.42516328        0.03217975        0.00543953        0.00086142
       -3.44186062        0.46089067        0.00509443        0.41760767        0.03185810        0.00545919        0.00087128
       -3.43185061        0.45207628        0.00483906        0.40939982        0.03148441        0.00547320        0.00087978
       -3.42184060        0.44275308        0.00459050        0.40072974        0.03106464        0.00548144        0.00088675
       -3.41183059        0.43313228        0.00435173        0.39179916        0.03060544        0.00548392        0.00089203
       -3.40182058        0.42342915        0.00412557        0.38281325        0.03011399        0.00548081        0.00089552
       -3.39181057        0.41385501        0.00391467        0.37397294        0.02959782        0.00547242        0.00089716
       -3.38180056        0.40461038        0.00372143        0.36546809        0.02906477        0.00545917        0.00089692
       -3.37179055        0.39587941        0.00354799        0.35747209        0.02852285        0.00544166        0.00089483
       -3.36178054        0.38782601        0.00339619        0.35013801        0.02798023        0.00542059        0.00089098
