#  aims_uuid : F128D8B5-E5F3-407F-ADF6-DC6AC86BB935                                
#  angular momentum projected density of states for species Mo as calculated by FHI-aims 
# The energy reference for this output is the chemical potential, mu =      -5.106688 eV
#      Energy (eV)         total dos     l= 0              l= 1              l= 2              l= 3              l= 4
       -4.89331207        0.97828316        0.03538256        0.15123773        0.77936213        0.01060866        0.00169207
       -4.88330206        1.02182596        0.03951725        0.16026244        0.80909923        0.01116148        0.00178556
       -4.87329205        1.06449740        0.04398723        0.16929352        0.83760505        0.01173418        0.00187741
       -4.86328204        1.10596972        0.04878718        0.17823916        0.86465397        0.01232246        0.00196696
       -4.85327203        1.14592462        0.05390508        0.18700346        0.89004077        0.01292174        0.00205357
       -4.84326202        1.18405522        0.05932151        0.19548783        0.91358194        0.01352732        0.00213663
       -4.83325201        1.22006746        0.06500897        0.20359252        0.93511606        0.01413437        0.00221553
       -4.82324200        1.25368134        0.07093147        0.21121829        0.95450379        0.01473807        0.00228972
       -4.81323199        1.28463225        0.07704429        0.21826821        0.97162753        0.01533358        0.00235864
       -4.80322198        1.31267263        0.08329411        0.22464959        0.98639098        0.01591612        0.00242182
       -4.79321197        1.33757414        0.08961942        0.23027605        0.99871885        0.01648101        0.00247881
       -4.78320196        1.35913052        0.09595133        0.23506956        1.00855673        0.01702367        0.00252923
       -4.77319195        1.37716089        0.10221475        0.23896245        1.01587125        0.01753969        0.00257276
       -4.76318194        1.39151356        0.10832988        0.24189932        1.02065039        0.01802482        0.00260915
       -4.75317193        1.40207007        0.11421409        0.24383875        1.02290392        0.01847507        0.00263824
       -4.74316192        1.40874900        0.11978398        0.24475464        1.02266375        0.01888668        0.00265995
       -4.73315191        1.41150949        0.12495773        0.24463722        1.01998403        0.01925625        0.00267427
       -4.72314190        1.41035384        0.12965740        0.24349351        1.01494094        0.01958070        0.00268130
       -4.71313189        1.40532920        0.13381137        0.24134731        1.00763193        0.01985739        0.00268120
       -4.70312188        1.39652792        0.13735650        0.23823864        0.99817441        0.02008413        0.00267423
       -4.69311187        1.38408661        0.14024019        0.23422260        0.98670385        0.02025926        0.00266070
       -4.68310186        1.36818384        0.14242198        0.22936780        0.97337145        0.02038162        0.00264100
       -4.67309185        1.34903663        0.14387485        0.22375428        0.95834131        0.02045067        0.00261553
       -4.66308184        1.32689587        0.14458593        0.21747122        0.94178754        0.02046642        0.00258477
       -4.65307183        1.30204104        0.14455683        0.21061433        0.92389116        0.02042952        0.00254919
       -4.64306182        1.27477436        0.14380334        0.20328320        0.90483731        0.02034122        0.00250929
       -4.63305181        1.24541488        0.14235468        0.19557871        0.88481257        0.02020334        0.00246558
       -4.62304180        1.21429256        0.14025234        0.18760049        0.86400286        0.02001830        0.00241856
       -4.61303179        1.18174266        0.13754850        0.17944475        0.84259163        0.01978906        0.00236872
       -4.60302178        1.14810066        0.13430416        0.17120233        0.82075858        0.01951906        0.00231653
       -4.59301177        1.11369762        0.13058711        0.16295717        0.79867869        0.01921219        0.00226247
       -4.58300176        1.07885618        0.12646982        0.15478513        0.77652153        0.01887270        0.00220700
       -4.57299175        1.04388700        0.12202723        0.14675328        0.75445080        0.01850513        0.00215056
       -4.56298174        1.00908580        0.11733477        0.13891949        0.73262373        0.01811421        0.00209360
       -4.55297173        0.97473072        0.11246645        0.13133235        0.71119058        0.01770478        0.00203656
       -4.54296172        0.94108006        0.10749322        0.12403148        0.69029385        0.01728164        0.00197987
       -4.53295171        0.90837041        0.10248153        0.11704796        0.67006742        0.01684954        0.00192397
       -4.52294170        0.87681502        0.09749225        0.11040502        0.65063549        0.01641298        0.00186928
       -4.51293169        0.84660267        0.09257985        0.10411882        0.63211155        0.01597620        0.00181625
       -4.50292168        0.81789689        0.08779181        0.09819937        0.61459730        0.01554309        0.00176531
       -4.49291167        0.79083576        0.08316840        0.09265145        0.59818188        0.01511712        0.00171690
       -4.48290166        0.76553234        0.07874255        0.08747561        0.58294140        0.01470134        0.00167144
       -4.47289165        0.74207579        0.07454002        0.08266910        0.56893895        0.01429837        0.00162936
       -4.46288164        0.72053321        0.07057969        0.07822690        0.55622515        0.01391038        0.00159109
       -4.45287163        0.70095216        0.06687396        0.07414260        0.54483933        0.01353921        0.00155706
       -4.44286162        0.68336400        0.06342929        0.07040931        0.53481136        0.01318635        0.00152770
       -4.43285161        0.66778760        0.06024670        0.06702052        0.52616391        0.01285305        0.00150343
       -4.42284160        0.65423360        0.05732242        0.06397086        0.51891522        0.01254041        0.00148469
       -4.41283159        0.64270883        0.05464851        0.06125680        0.51308215        0.01224943        0.00147195
       -4.40282158        0.63322069        0.05221347        0.05887720        0.50868329        0.01198108        0.00146566
       -4.39281157        0.62578142        0.05000288        0.05683384        0.50574197        0.01173641        0.00146632
       -4.38280156        0.62041174        0.04800005        0.05513169        0.50428902        0.01151655        0.00147443
       -4.37279155        0.61714394        0.04618658        0.05377906        0.50436499        0.01132276        0.00149055
       -4.36278154        0.61602404        0.04454303        0.05278761        0.50602172        0.01115643        0.00151524
       -4.35277153        0.61711295        0.04304947        0.05217208        0.50932321        0.01101910        0.00154909
       -4.34276152        0.62048646        0.04168605        0.05194987        0.51434543        0.01091239        0.00159272
       -4.33275151        0.62623397        0.04043351        0.05214039        0.52117534        0.01083800        0.00164673
       -4.32274150        0.63445600        0.03927371        0.05276420        0.52990873        0.01079762        0.00171174
       -4.31273149        0.64526039        0.03819003        0.05384197        0.54064716        0.01079288        0.00178835
       -4.30272148        0.65875725        0.03716772        0.05539327        0.55349390        0.01082527        0.00187709
       -4.29271147        0.67505281        0.03619423        0.05743523        0.56854890        0.01089602        0.00197843
       -4.28270146        0.69424229        0.03525933        0.05998106        0.58590307        0.01100609        0.00209274
       -4.27269145        0.71640208        0.03435525        0.06303862        0.60563196        0.01115600        0.00222025
       -4.26268144        0.74158133        0.03347667        0.06660892        0.62778894        0.01134578        0.00236103
       -4.25267143        0.76979350        0.03262057        0.07068477        0.65239836        0.01157487        0.00251494
       -4.24266142        0.80100812        0.03178603        0.07524956        0.67944887        0.01184204        0.00268161
       -4.23265141        0.83514317        0.03097398        0.08027627        0.70888716        0.01214533        0.00286043
       -4.22264140        0.87205864        0.03018678        0.08572676        0.74061262        0.01248198        0.00305050
       -4.21263139        0.91155150        0.02942785        0.09155147        0.77447318        0.01284838        0.00325062
       -4.20262138        0.95335270        0.02870121        0.09768943        0.81026266        0.01324007        0.00345932
       -4.19261137        0.99712635        0.02801107        0.10406885        0.84771982        0.01365179        0.00367481
       -4.18260136        1.04247143        0.02736135        0.11060800        0.88652953        0.01407748        0.00389507
       -4.17259135        1.08892612        0.02675533        0.11721671        0.92632590        0.01451039        0.00411780
       -4.16258134        1.13597478        0.02619530        0.12379815        0.96669757        0.01494323        0.00434052
       -4.15257133        1.18305739        0.02568230        0.13025113        1.00719502        0.01536834        0.00456061
       -4.14256132        1.22958123        0.02521589        0.13647254        1.04733961        0.01577785        0.00477534
       -4.13255131        1.27493435        0.02479409        0.14236018        1.08663415        0.01616397        0.00498196
       -4.12254130        1.31850035        0.02441334        0.14781551        1.12457452        0.01651919        0.00517778
       -4.11253129        1.35967385        0.02406857        0.15274656        1.16066195        0.01683657        0.00536020
       -4.10252128        1.39787605        0.02375332        0.15707055        1.19441540        0.01710996        0.00552682
       -4.09251127        1.43256977        0.02346001        0.16071639        1.22538367        0.01733422        0.00567548
       -4.08250126        1.46327332        0.02318018        0.16362671        1.25315667        0.01750545        0.00580431
       -4.07249125        1.48957272        0.02290483        0.16575950        1.27737549        0.01762108        0.00591181
       -4.06248124        1.51113187        0.02262479        0.16708924        1.29774097        0.01768001        0.00599686
       -4.05247123        1.52770023        0.02233108        0.16760738        1.31402044        0.01768260        0.00605872
       -4.04246122        1.53911803        0.02201534        0.16732236        1.32605258        0.01763065        0.00609710
       -4.03245121        1.54531872        0.02167014        0.16625894        1.33375019        0.01752734        0.00611211
       -4.02244120        1.54632877        0.02128933        0.16445711        1.33710107        0.01737701        0.00610426
       -4.01243119        1.54226502        0.02086833        0.16197044        1.33616680        0.01718504        0.00607441
       -4.00242118        1.53332961        0.02040435        0.15886411        1.33107977        0.01695757        0.00602380
       -3.99241117        1.51980288        0.01989651        0.15521265        1.32203855        0.01670126        0.00595392
       -3.98240116        1.50203449        0.01934592        0.15109741        1.30930162        0.01642302        0.00586652
       -3.97239115        1.48043289        0.01875562        0.14660411        1.29317986        0.01612977        0.00576352
       -3.96238114        1.45545377        0.01813049        0.14182024        1.27402787        0.01582818        0.00564698
       -3.95237113        1.42758752        0.01747702        0.13683270        1.25223433        0.01552443        0.00551904
       -3.94236112        1.39734618        0.01680303        0.13172560        1.22821165        0.01522407        0.00538184
       -3.93235111        1.36525024        0.01611735        0.12657831        1.20238528        0.01493183        0.00523747
       -3.92234110        1.33181553        0.01542942        0.12146382        1.17518274        0.01465156        0.00508798
       -3.91233109        1.29754076        0.01474887        0.11644750        1.14702298        0.01438615        0.00493527
       -3.90232108        1.26289593        0.01408512        0.11158611        1.11830610        0.01413753        0.00478107
       -3.89231107        1.22831209        0.01344702        0.10692726        1.08940415        0.01390671        0.00462694
       -3.88230106        1.19417283        0.01284245        0.10250915        1.06065310        0.01369387        0.00447426
       -3.87229105        1.16080770        0.01227805        0.09836067        1.03234643        0.01349840        0.00432416
       -3.86228104        1.12848800        0.01175901        0.09450169        1.00473059        0.01331912        0.00417759
       -3.85227103        1.09742489        0.01128893        0.09094370        0.97800261        0.01315438        0.00403528
       -3.84226102        1.06777003        0.01086971        0.08769051        0.95230981        0.01300222        0.00389778
       -3.83225101        1.03961856        0.01050165        0.08473920        0.92775166        0.01286059        0.00376545
       -3.82224100        1.01301424        0.01018350        0.08208109        0.90438368        0.01272744        0.00363853
       -3.81223099        0.98795637        0.00991260        0.07970275        0.88222297        0.01260094        0.00351711
       -3.80222098        0.96440808        0.00968517        0.07758710        0.86125507        0.01247955        0.00340120
       -3.79221097        0.94230540        0.00949646        0.07571439        0.84144163        0.01236219        0.00329073
       -3.78220096        0.92156658        0.00934110        0.07406317        0.82272841        0.01224830        0.00318559
       -3.77219095        0.90210112        0.00921333        0.07261120        0.80505311        0.01213785        0.00308563
       -3.76218094        0.88381798        0.00910726        0.07133617        0.78835242        0.01203140        0.00299072
       -3.75217093        0.86663244        0.00901711        0.07021639        0.77256816        0.01193007        0.00290071
       -3.74216092        0.85047155        0.00893744        0.06923136        0.75765182        0.01183546        0.00281546
       -3.73215091        0.83527767        0.00886329        0.06836215        0.74356777        0.01174958        0.00273489
       -3.72214090        0.82101031        0.00879030        0.06759169        0.73029468        0.01167474        0.00265890
       -3.71213089        0.80764622        0.00871484        0.06690500        0.71782555        0.01161341        0.00258742
       -3.70212088        0.79517795        0.00863397        0.06628921        0.70616627        0.01156807        0.00252044
       -3.69211087        0.78361121        0.00854552        0.06573354        0.69533315        0.01154108        0.00245792
       -3.68210086        0.77296127        0.00844802        0.06522921        0.68534969        0.01153449        0.00239986
       -3.67209085        0.76324883        0.00834064        0.06476921        0.67624277        0.01154994        0.00234627
       -3.66208084        0.75449574        0.00822313        0.06434809        0.66803884        0.01158850        0.00229717
       -3.65207083        0.74672076        0.00809572        0.06396168        0.66076020        0.01165058        0.00225258
       -3.64206082        0.73993574        0.00795903        0.06360673        0.65442163        0.01173584        0.00221251
       -3.63205081        0.73414244        0.00781393        0.06328066        0.64902771        0.01184314        0.00217700
       -3.62204080        0.72932998        0.00766152        0.06298117        0.64457069        0.01197055        0.00214604
       -3.61203079        0.72547318        0.00750295        0.06270600        0.64102922        0.01211535        0.00211965
       -3.60202078        0.72253164        0.00733944        0.06245261        0.63836770        0.01227410        0.00209779
       -3.59201077        0.72044958        0.00717212        0.06221796        0.63653637        0.01244272        0.00208041
       -3.58200076        0.71915641        0.00700205        0.06199828        0.63547200        0.01261663        0.00206745
       -3.57199075        0.71856784        0.00683014        0.06178896        0.63509905        0.01279090        0.00205878
       -3.56198074        0.71858738        0.00665716        0.06158441        0.63533115        0.01296042        0.00205425
       -3.55197073        0.71910828        0.00648370        0.06137800        0.63607288        0.01312008        0.00205363
       -3.54196072        0.72001558        0.00631019        0.06116207        0.63722169        0.01326497        0.00205665
       -3.53195071        0.72118828        0.00613694        0.06092799        0.63866977        0.01339057        0.00206301
       -3.52194070        0.72250153        0.00596408        0.06066625        0.64030599        0.01349290        0.00207231
       -3.51193069        0.72382875        0.00579167        0.06036662        0.64201769        0.01356865        0.00208412
       -3.50192068        0.72504376        0.00561968        0.06001840        0.64369234        0.01361537        0.00209797
       -3.49191067        0.72602269        0.00544805        0.05961064        0.64521918        0.01363147        0.00211334
       -3.48190066        0.72664594        0.00527671        0.05913255        0.64649072        0.01361628        0.00212967
       -3.47189065        0.72680011        0.00510561        0.05857379        0.64740422        0.01357009        0.00214641
       -3.46188064        0.72637999        0.00493474        0.05792495        0.64786326        0.01349405        0.00216298
       -3.45187063        0.72529059        0.00476421        0.05717799        0.64777940        0.01339015        0.00217884
       -3.44186062        0.72344944        0.00459419        0.05632670        0.64707400        0.01326109        0.00219346
       -3.43185061        0.72078899        0.00442501        0.05536721        0.64568026        0.01311015        0.00220636
       -3.42184060        0.71725927        0.00425712        0.05429843        0.64354552        0.01294110        0.00221710
       -3.41183059        0.71283066        0.00409113        0.05312246        0.64063374        0.01275800        0.00222533
       -3.40182058        0.70749675        0.00392778        0.05184501        0.63692805        0.01256512        0.00223079
       -3.39181057        0.70127713        0.00376799        0.05047561        0.63243344        0.01236679        0.00223330
       -3.38180056        0.69421986        0.00361281        0.04902783        0.62717913        0.01216731        0.00223277
       -3.37179055        0.68640352        0.00346344        0.04751930        0.62122066        0.01197086        0.00222925
       -3.36178054        0.67793851        0.00332121        0.04597163        0.61464136        0.01178144        0.00222288
