#  aims_uuid : F128D8B5-E5F3-407F-ADF6-DC6AC86BB935                                
#  angular momentum projected density of states for species Mo as calculated by FHI-aims 
# The energy reference for this output is the vacuum level =       0.000000 eV
#      Energy (eV)         total dos     l= 0              l= 1              l= 2              l= 3              l= 4
      -10.00000000        0.94404448        0.03395316        0.13075128        0.76684584        0.01083362        0.00166058
       -9.98998999        0.98935687        0.03908742        0.13967139        0.79745696        0.01137968        0.00176142
       -9.97997998        1.03376747        0.04473931        0.14872943        0.82648711        0.01195083        0.00186079
       -9.96996997        1.07695489        0.05090519        0.15785357        0.85369499        0.01254316        0.00195797
       -9.95995996        1.11860572        0.05756945        0.16696698        0.87886480        0.01315226        0.00205224
       -9.94994995        1.15841484        0.06470338        0.17598856        0.90180680        0.01377321        0.00214289
       -9.93993994        1.19608539        0.07226450        0.18483381        0.92235716        0.01440070        0.00222923
       -9.92992993        1.23132891        0.08019629        0.19341574        0.94037728        0.01502897        0.00231061
       -9.91991992        1.26386600        0.08842856        0.20164616        0.95575293        0.01565197        0.00238639
       -9.90990991        1.29342789        0.09687830        0.20943692        0.96839342        0.01626332        0.00245594
       -9.89989990        1.31975902        0.10545122        0.21670148        0.97823116        0.01685648        0.00251868
       -9.88988989        1.34262077        0.11404373        0.22335651        0.98522163        0.01742482        0.00257408
       -9.87987988        1.36179638        0.12254549        0.22932366        0.98934385        0.01796174        0.00262163
       -9.86986987        1.37709661        0.13084226        0.23453126        0.99060137        0.01846081        0.00266091
       -9.85985986        1.38836603        0.13881902        0.23891603        0.98902346        0.01891596        0.00269154
       -9.84984985        1.39548931        0.14636322        0.24242468        0.98466654        0.01932160        0.00271326
       -9.83983984        1.39839715        0.15336787        0.24501522        0.97761538        0.01967282        0.00272587
       -9.82982983        1.39707128        0.15973451        0.24665810        0.96798390        0.01996548        0.00272929
       -9.81981982        1.39154808        0.16537580        0.24733691        0.95591538        0.02019645        0.00272354
       -9.80980981        1.38192063        0.17021763        0.24704881        0.94158182        0.02036360        0.00270878
       -9.79979980        1.36833876        0.17420074        0.24580452        0.92518230        0.02046593        0.00268526
       -9.78978979        1.35100720        0.17728168        0.24362800        0.90694055        0.02050363        0.00265335
       -9.77977978        1.33018195        0.17943328        0.24055570        0.88710146        0.02047799        0.00261353
       -9.76976977        1.30616485        0.18064453        0.23663562        0.86592690        0.02039142        0.00256638
       -9.75975976        1.27929696        0.18091993        0.23192608        0.84369101        0.02024735        0.00251258
       -9.74974975        1.24995087        0.18027854        0.22649432        0.82067507        0.02005008        0.00245286
       -9.73973974        1.21852250        0.17875255        0.22041498        0.79716229        0.01980465        0.00238803
       -9.72972973        1.18542269        0.17638586        0.21376856        0.77343262        0.01951671        0.00231894
       -9.71971972        1.15106881        0.17323230        0.20663984        0.74975796        0.01919225        0.00224646
       -9.70970971        1.11587691        0.16935402        0.19911630        0.72639759        0.01883753        0.00217147
       -9.69969970        1.08025432        0.16481981        0.19128662        0.70359421        0.01845882        0.00209486
       -9.68968969        1.04459292        0.15970346        0.18323922        0.68157049        0.01806226        0.00201749
       -9.67967968        1.00926325        0.15408234        0.17506085        0.66052615        0.01765371        0.00194021
       -9.66966967        0.97460934        0.14803596        0.16683531        0.64063564        0.01723861        0.00186381
       -9.65965966        0.94094431        0.14164476        0.15864219        0.62204642        0.01682190        0.00178903
       -9.64964965        0.90854689        0.13498890        0.15055576        0.60487776        0.01640790        0.00171657
       -9.63963964        0.87765869        0.12814717        0.14264394        0.58922023        0.01600030        0.00164706
       -9.62962963        0.84848250        0.12119601        0.13496742        0.57513591        0.01560211        0.00158105
       -9.61961962        0.82118152        0.11420855        0.12757900        0.56265923        0.01521569        0.00151905
       -9.60960961        0.79587975        0.10725373        0.12052308        0.55179868        0.01484279        0.00146148
       -9.59959960        0.77266350        0.10039547        0.11383543        0.54253929        0.01448460        0.00140870
       -9.58958959        0.75158405        0.09369200        0.10754323        0.53484595        0.01414184        0.00136102
       -9.57957958        0.73266161        0.08719519        0.10166537        0.52866750        0.01381488        0.00131868
       -9.56956957        0.71589017        0.08095007        0.09621303        0.52394138        0.01350381        0.00128188
       -9.55955956        0.70124341        0.07499448        0.09119063        0.52059891        0.01320861        0.00125078
       -9.54954955        0.68868123        0.06935886        0.08659685        0.51857074        0.01292926        0.00122551
       -9.53953954        0.67815660        0.06406623        0.08242604        0.51779233        0.01266579        0.00120621
       -9.52952953        0.66962258        0.05913227        0.07866962        0.51820925        0.01241846        0.00119299
       -9.51951952        0.66303888        0.05456565        0.07531760        0.51978189        0.01218774        0.00118600
       -9.50950951        0.65837787        0.05036845        0.07236010        0.52248946        0.01197443        0.00118542
       -9.49949950        0.65562965        0.04653673        0.06978873        0.52633307        0.01177966        0.00119147
       -9.48948949        0.65480587        0.04306116        0.06759781        0.53133762        0.01160485        0.00120443
       -9.47947948        0.65594220        0.03992785        0.06578533        0.53755263        0.01145173        0.00122468
       -9.46946947        0.65909940        0.03711909        0.06435359        0.54505182        0.01132225        0.00125265
       -9.45945946        0.66436274        0.03461422        0.06330952        0.55393155        0.01121854        0.00128890
       -9.44944945        0.67184011        0.03239048        0.06266456        0.56430818        0.01114283        0.00133407
       -9.43943944        0.68165860        0.03042377        0.06243421        0.57631440        0.01109732        0.00138889
       -9.42942943        0.69395983        0.02868951        0.06263719        0.59009481        0.01108416        0.00145417
       -9.41941942        0.70889405        0.02716323        0.06329420        0.60580054        0.01110528        0.00153081
       -9.40940941        0.72661324        0.02582128        0.06442653        0.62358333        0.01116238        0.00161972
       -9.39939940        0.74726319        0.02464131        0.06605430        0.64358893        0.01125680        0.00172185
       -9.38938939        0.77097487        0.02360266        0.06819469        0.66594996        0.01138947        0.00183808
       -9.37937938        0.79785511        0.02268670        0.07086004        0.69077829        0.01156081        0.00196927
       -9.36936937        0.82797686        0.02187695        0.07405605        0.71815708        0.01177069        0.00211609
       -9.35935936        0.86136928        0.02115921        0.07778007        0.74813257        0.01201835        0.00227907
       -9.34934935        0.89800793        0.02052149        0.08201969        0.78070591        0.01230234        0.00245849
       -9.33933934        0.93780546        0.01995385        0.08675159        0.81582520        0.01262048        0.00265433
       -9.32932933        0.98060329        0.01944825        0.09194080        0.85337822        0.01296977        0.00286624
       -9.31931932        1.02616474        0.01899826        0.09754038        0.89318617        0.01334645        0.00309348
       -9.30930931        1.07417019        0.01859873        0.10349164        0.93499904        0.01374589        0.00333489
       -9.29929930        1.12421479        0.01824552        0.10972475        0.97849293        0.01416269        0.00358891
       -9.28928929        1.17580928        0.01793517        0.11615989        1.02327002        0.01459067        0.00385353
       -9.27927928        1.22838417        0.01766458        0.12270885        1.06886139        0.01502302        0.00412633
       -9.26926927        1.28129777        0.01743078        0.12927699        1.11473311        0.01545237        0.00440452
       -9.25925926        1.33384793        0.01723071        0.13576552        1.16029574        0.01587099        0.00468498
       -9.24924925        1.38528745        0.01706102        0.14207402        1.20491712        0.01627097        0.00496431
       -9.23923924        1.43484272        0.01691801        0.14810306        1.24793818        0.01664451        0.00523896
       -9.22922923        1.48173505        0.01679754        0.15375681        1.28869136        0.01698409        0.00550525
       -9.21921922        1.52520371        0.01669503        0.15894563        1.32652074        0.01728278        0.00575952
       -9.20920921        1.56452982        0.01660548        0.16358834        1.36080330        0.01753451        0.00599819
       -9.19919920        1.59905990        0.01652357        0.16761429        1.39096993        0.01773425        0.00621787
       -9.18918919        1.62822788        0.01644372        0.17096499        1.41652549        0.01787824        0.00641544
       -9.17917918        1.65157456        0.01636028        0.17359538        1.43706661        0.01796415        0.00658814
       -9.16916917        1.66876331        0.01626759        0.17547455        1.45229641        0.01799114        0.00673363
       -9.15915916        1.67959146        0.01616020        0.17658604        1.46203530        0.01795989        0.00685003
       -9.14914915        1.68399648        0.01603302        0.17692771        1.46622718        0.01787259        0.00693597
       -9.13913914        1.68205685        0.01588147        0.17651109        1.46494088        0.01773280        0.00699062
       -9.12912913        1.67398755        0.01570163        0.17536046        1.45836650        0.01754531        0.00701364
       -9.11911912        1.66013029        0.01549044        0.17351157        1.44680711        0.01731592        0.00700526
       -9.10910911        1.64093929        0.01524576        0.17101011        1.43066607        0.01705118        0.00696618
       -9.09909910        1.61696303        0.01496655        0.16791004        1.41043074        0.01675814        0.00689756
       -9.08908909        1.58882319        0.01465293        0.16427189        1.38665330        0.01644408        0.00680099
       -9.07907908        1.55719157        0.01430621        0.16016091        1.35992981        0.01611619        0.00667845
       -9.06906907        1.52276624        0.01392889        0.15564543        1.33087835        0.01578138        0.00653219
       -9.05905906        1.48624785        0.01352463        0.15079517        1.30011725        0.01544602        0.00636478
       -9.04904905        1.44831715        0.01309817        0.14567979        1.26824449        0.01511576        0.00617893
       -9.03903904        1.40961459        0.01265513        0.14036752        1.23581896        0.01479544        0.00597753
       -9.02902903        1.37072275        0.01220183        0.13492407        1.20334439        0.01448893        0.00576353
       -9.01901902        1.33215217        0.01174509        0.12941158        1.17125644        0.01419918        0.00553988
       -9.00900901        1.29433093        0.01129192        0.12388793        1.13991343        0.01392815        0.00530951
       -8.99899900        1.25759839        0.01084926        0.11840609        1.10959089        0.01367691        0.00507524
       -8.98898899        1.22220283        0.01042366        0.11301373        1.08047995        0.01344574        0.00483975
       -8.97897898        1.18830328        0.01002107        0.10775298        1.05268950        0.01323421        0.00460552
       -8.96896897        1.15597483        0.00964654        0.10266031        1.02625185        0.01304133        0.00437481
       -8.95895896        1.12521742        0.00930403        0.09776662        1.00113145        0.01286571        0.00414960
       -8.94894895        1.09596720        0.00899629        0.09309741        0.97723615        0.01270573        0.00393162
       -8.93893894        1.06811006        0.00872474        0.08867305        0.95443037        0.01255964        0.00372226
       -8.92892893        1.04149654        0.00848950        0.08450920        0.93254942        0.01242575        0.00352267
       -8.91891892        1.01595715        0.00828940        0.08061723        0.91141433        0.01230251        0.00333368
       -8.90890891        0.99131765        0.00812215        0.07700476        0.89084624        0.01218863        0.00315586
       -8.89889890        0.96741315        0.00798448        0.07367617        0.87067983        0.01208314        0.00298952
       -8.88888889        0.94410064        0.00787238        0.07063313        0.85077490        0.01198543        0.00283480
       -8.87887888        0.92126910        0.00778134        0.06787513        0.83102577        0.01189525        0.00269161
       -8.86886887        0.89884693        0.00770667        0.06539990        0.81136789        0.01181272        0.00255975
       -8.85885886        0.87680629        0.00764373        0.06320382        0.79178154        0.01173828        0.00243891
       -8.84884885        0.85516430        0.00758820        0.06128225        0.77229250        0.01167263        0.00232871
       -8.83883884        0.83398120        0.00753630        0.05962976        0.75296979        0.01161664        0.00222871
       -8.82882883        0.81335577        0.00748498        0.05824024        0.73392079        0.01157127        0.00213849
       -8.81881882        0.79341828        0.00743205        0.05710695        0.71528419        0.01153749        0.00205760
       -8.80880881        0.77432179        0.00737620        0.05622253        0.69722125        0.01151618        0.00198562
       -8.79879880        0.75623221        0.00731707        0.05557884        0.67990611        0.01150801        0.00192216
       -8.78878879        0.73931784        0.00725512        0.05516683        0.66351563        0.01151342        0.00186684
       -8.77877878        0.72373919        0.00719152        0.05497634        0.64821957        0.01153246        0.00181931
       -8.76876877        0.70963942        0.00712800        0.05499588        0.63417151        0.01156483        0.00177920
       -8.75875876        0.69713621        0.00706664        0.05521242        0.62150118        0.01160978        0.00174619
       -8.74874875        0.68631517        0.00700962        0.05561118        0.61030836        0.01166610        0.00171992
       -8.73873874        0.67722531        0.00695901        0.05617548        0.60065867        0.01173213        0.00170002
       -8.72872873        0.66987650        0.00691654        0.05688663        0.59258143        0.01180580        0.00168610
       -8.71871872        0.66423894        0.00688342        0.05772386        0.58606928        0.01188463        0.00167775
       -8.70870871        0.66024467        0.00686016        0.05866438        0.58107979        0.01196581        0.00167452
       -8.69869870        0.65779059        0.00684651        0.05968345        0.57753837        0.01204631        0.00167595
       -8.68868869        0.65674305        0.00684138        0.06075461        0.57534260        0.01212290        0.00168156
       -8.67867868        0.65694325        0.00684288        0.06184993        0.57436728        0.01219233        0.00169083
       -8.66866867        0.65821348        0.00684839        0.06294042        0.57447000        0.01225142        0.00170326
       -8.65865866        0.66036351        0.00685468        0.06399644        0.57549691        0.01229713        0.00171836
       -8.64864865        0.66319690        0.00685809        0.06498829        0.57728817        0.01232673        0.00173563
       -8.63863864        0.66651705        0.00685474        0.06588673        0.57968308        0.01233788        0.00175462
       -8.62862863        0.67013248        0.00684073        0.06666369        0.58252446        0.01232871        0.00177488
       -8.61861862        0.67386138        0.00681239        0.06729286        0.58566222        0.01229789        0.00179603
       -8.60860861        0.67753526        0.00676645        0.06775039        0.58895604        0.01224469        0.00181770
       -8.59859860        0.68100159        0.00670024        0.06801552        0.59227728        0.01216898        0.00183956
       -8.58858859        0.68412556        0.00661184        0.06807119        0.59550992        0.01207126        0.00186135
       -8.57857858        0.68679105        0.00650018        0.06790454        0.59855095        0.01195259        0.00188280
       -8.56856857        0.68890083        0.00636504        0.06750733        0.60131018        0.01181459        0.00190370
       -8.55855856        0.69037636        0.00620713        0.06687631        0.60370975        0.01165930        0.00192387
       -8.54854855        0.69115721        0.00602796        0.06601340        0.60568353        0.01148918        0.00194314
       -8.53853854        0.69120044        0.00582979        0.06492577        0.60717652        0.01130698        0.00196139
       -8.52852853        0.69048005        0.00561552        0.06362576        0.60814464        0.01111565        0.00197848
       -8.51851852        0.68898662        0.00538851        0.06213079        0.60855472        0.01091828        0.00199432
       -8.50850851        0.68672730        0.00515242        0.06046297        0.60838505        0.01071801        0.00200885
       -8.49849850        0.68372621        0.00491112        0.05864880        0.60762630        0.01051798        0.00202201
       -8.48848849        0.68002508        0.00466846        0.05671867        0.60628289        0.01032128        0.00203378
       -8.47847848        0.67568416        0.00442820        0.05470629        0.60437455        0.01013093        0.00204418
       -8.46846847        0.67078321        0.00419389        0.05264817        0.60193804        0.00994985        0.00205327
