#  aims_uuid : F128D8B5-E5F3-407F-ADF6-DC6AC86BB935                                
#  angular momentum projected density of states for species S as calculated by FHI-aims 
# The energy reference for this output is the vacuum level =       0.000000 eV
#      Energy (eV)         total dos     l= 0              l= 1              l= 2              l= 3              l= 4
      -10.00000000        0.95268054        0.07246449        0.82073446        0.05301749        0.00587575        0.00058834
       -9.98998999        1.00745214        0.07754873        0.86707224        0.05603170        0.00618764        0.00061183
       -9.97997998        1.06223515        0.08265431        0.91345531        0.05899348        0.00649510        0.00063694
       -9.96996997        1.11659388        0.08774343        0.95951242        0.06187859        0.00679585        0.00066360
       -9.95995996        1.17008596        0.09277705        1.00486647        0.06466308        0.00708767        0.00069169
       -9.94994995        1.22226673        0.09771524        1.04913850        0.06732348        0.00736839        0.00072110
       -9.93993994        1.27269344        0.10251749        1.09195130        0.06983700        0.00763596        0.00075168
       -9.92992993        1.32092926        0.10714308        1.13293287        0.07218171        0.00788838        0.00078324
       -9.91991992        1.36654744        0.11155144        1.17171991        0.07433677        0.00812376        0.00081556
       -9.90990991        1.40913573        0.11570269        1.20796159        0.07628273        0.00834033        0.00084839
       -9.89989990        1.44830138        0.11955810        1.24132367        0.07800175        0.00853642        0.00088145
       -9.88988989        1.48367663        0.12308067        1.27149300        0.07947805        0.00871051        0.00091441
       -9.87987988        1.51492478        0.12623582        1.29818264        0.08069814        0.00886125        0.00094694
       -9.86986987        1.54174663        0.12899204        1.32113716        0.08165129        0.00898748        0.00097865
       -9.85985986        1.56388701        0.13132156        1.34013818        0.08232982        0.00908828        0.00100917
       -9.84984985        1.58114114        0.13320098        1.35500971        0.08272937        0.00916297        0.00103810
       -9.83983984        1.59336026        0.13461191        1.36562298        0.08284915        0.00921116        0.00106506
       -9.82982983        1.60045630        0.13554135        1.37190047        0.08269202        0.00923277        0.00108968
       -9.81981982        1.60240499        0.13598214        1.37381872        0.08226447        0.00922805        0.00111162
       -9.80980981        1.59924740        0.13593304        1.37140973        0.08157651        0.00919754        0.00113058
       -9.79979980        1.59108945        0.13539881        1.36476077        0.08064141        0.00914214        0.00114632
       -9.78978979        1.57809957        0.13439005        1.35401255        0.07947530        0.00906303        0.00115865
       -9.77977978        1.56050452        0.13292282        1.33935583        0.07809676        0.00896167        0.00116744
       -9.76976977        1.53858361        0.13101829        1.32102667        0.07652625        0.00883976        0.00117264
       -9.75975976        1.51266167        0.12870205        1.29930052        0.07478563        0.00869921        0.00117426
       -9.74974975        1.48310118        0.12600359        1.27448558        0.07289754        0.00854209        0.00117238
       -9.73973974        1.45029391        0.12295551        1.24691570        0.07088496        0.00837058        0.00116716
       -9.72972973        1.41465254        0.11959291        1.21694320        0.06877071        0.00818694        0.00115878
       -9.71971972        1.37660256        0.11595265        1.18493188        0.06657708        0.00799343        0.00114752
       -9.70970971        1.33657469        0.11207273        1.15125040        0.06432554        0.00779234        0.00113368
       -9.69969970        1.29499803        0.10799172        1.11626631        0.06203653        0.00758590        0.00111758
       -9.68968969        1.25229399        0.10374821        1.08034064        0.05972928        0.00737627        0.00109959
       -9.67967968        1.20887095        0.09938033        1.04382324        0.05742178        0.00716552        0.00108007
       -9.66966967        1.16511974        0.09492535        1.00704869        0.05513069        0.00695560        0.00105942
       -9.65965966        1.12140974        0.09041927        0.97033279        0.05287136        0.00674832        0.00103799
       -9.64964965        1.07808558        0.08589651        0.93396969        0.05065786        0.00654537        0.00101615
       -9.63963964        1.03546441        0.08138960        0.89822941        0.04850293        0.00634823        0.00099425
       -9.62962963        0.99383372        0.07692887        0.86335598        0.04641802        0.00615825        0.00097260
       -9.61961962        0.95344973        0.07254227        0.82956610        0.04441331        0.00597656        0.00095148
       -9.60960961        0.91453647        0.06825507        0.79704844        0.04249765        0.00580412        0.00093118
       -9.59959960        0.87728563        0.06408980        0.76596366        0.04067858        0.00564168        0.00091191
       -9.58958959        0.84185725        0.06006605        0.73644519        0.03896234        0.00548978        0.00089390
       -9.57957958        0.80838139        0.05620049        0.70860093        0.03735389        0.00534877        0.00087731
       -9.56956957        0.77696074        0.05250686        0.68251578        0.03585695        0.00521883        0.00086232
       -9.55955956        0.74767425        0.04899607        0.65825503        0.03447412        0.00509995        0.00084909
       -9.54954955        0.72058154        0.04567637        0.63586848        0.03320696        0.00499198        0.00083775
       -9.53953954        0.69572813        0.04255360        0.61539518        0.03205623        0.00489467        0.00082845
       -9.52952953        0.67315107        0.03963144        0.59686859        0.03102201        0.00480768        0.00082134
       -9.51951952        0.65288475        0.03691179        0.58032175        0.03010399        0.00473063        0.00081658
       -9.50950951        0.63496667        0.03439505        0.56579242        0.02930169        0.00466316        0.00081435
       -9.49949950        0.61944270        0.03208052        0.55332768        0.02861469        0.00460497        0.00081483
       -9.48948949        0.60637151        0.02996670        0.54298782        0.02804292        0.00455584        0.00081824
       -9.47947948        0.59582805        0.02805153        0.53484920        0.02758680        0.00451573        0.00082479
       -9.46946947        0.58790556        0.02633270        0.52900593        0.02724744        0.00448479        0.00083471
       -9.45945946        0.58271609        0.02480770        0.52557000        0.02702674        0.00446339        0.00084826
       -9.44944945        0.58038926        0.02347398        0.52467002        0.02692743        0.00445215        0.00086567
       -9.43943944        0.58106934        0.02232891        0.52644824        0.02695303        0.00445199        0.00088717
       -9.42942943        0.58491038        0.02136968        0.53105594        0.02710772        0.00446405        0.00091299
       -9.41941942        0.59206978        0.02059321        0.53864733        0.02739616        0.00448978        0.00094330
       -9.40940941        0.60270008        0.01999589        0.54937191        0.02782318        0.00453082        0.00097828
       -9.39939940        0.61693959        0.01957337        0.56336574        0.02839344        0.00458903        0.00101801
       -9.38938939        0.63490180        0.01932029        0.58074160        0.02911099        0.00466636        0.00106256
       -9.37937938        0.65666425        0.01923002        0.60157867        0.02997884        0.00476482        0.00111190
       -9.36936937        0.68225714        0.01929437        0.62591205        0.03099841        0.00488639        0.00116593
       -9.35935936        0.71165242        0.01950344        0.65372250        0.03216910        0.00503287        0.00122449
       -9.34934935        0.74475369        0.01984546        0.68492729        0.03348779        0.00520586        0.00128730
       -9.33933934        0.78138791        0.02030667        0.71937227        0.03494841        0.00540656        0.00135401
       -9.32932933        0.82129912        0.02087138        0.75682619        0.03654167        0.00563572        0.00142416
       -9.31931932        0.86414513        0.02152210        0.79697751        0.03825481        0.00589352        0.00149720
       -9.30930931        0.90949734        0.02223968        0.83943417        0.04007153        0.00617949        0.00157248
       -9.29929930        0.95684430        0.02300370        0.88372682        0.04197207        0.00649243        0.00164927
       -9.28928929        1.00559892        0.02379283        0.92931549        0.04393345        0.00683038        0.00172677
       -9.27927928        1.05510952        0.02458532        0.97559966        0.04592986        0.00719058        0.00180410
       -9.26926927        1.10467422        0.02535953        1.02193165        0.04793322        0.00756950        0.00188032
       -9.25925926        1.15355837        0.02609449        1.06763269        0.04991387        0.00796284        0.00195448
       -9.24924925        1.20101417        0.02677047        1.11201108        0.05184135        0.00836566        0.00202560
       -9.23923924        1.24630163        0.02736956        1.15438166        0.05368527        0.00877243        0.00209272
       -9.22922923        1.28870996        0.02787608        1.19408561        0.05541620        0.00917717        0.00215491
       -9.21921922        1.32757815        0.02827705        1.23050961        0.05700654        0.00957364        0.00221131
       -9.20920921        1.36231391        0.02856251        1.26310344        0.05843139        0.00995545        0.00226112
       -9.19919920        1.39240988        0.02872564        1.29139508        0.05966919        0.01031629        0.00230367
       -9.18918919        1.41745649        0.02876292        1.31500266        0.06070242        0.01065010        0.00233839
       -9.17917918        1.43715072        0.02867400        1.33364266        0.06151796        0.01095123        0.00236487
       -9.16916917        1.45130066        0.02846156        1.34713418        0.06210740        0.01121468        0.00238284
       -9.15915916        1.45982570        0.02813103        1.35539917        0.06246715        0.01143616        0.00239220
       -9.14914915        1.46275265        0.02769019        1.35845881        0.06259835        0.01161232        0.00239298
       -9.13913914        1.46020822        0.02714881        1.35642662        0.06250662        0.01174078        0.00238540
       -9.12912913        1.45240854        0.02651810        1.34949871        0.06220171        0.01182023        0.00236979
       -9.11911912        1.43964643        0.02581031        1.33794201        0.06169704        0.01185043        0.00234665
       -9.10910911        1.42227736        0.02503821        1.32208127        0.06100907        0.01183225        0.00231656
       -9.09909910        1.40070479        0.02421470        1.30228555        0.06015675        0.01176757        0.00228021
       -9.08908909        1.37536572        0.02335243        1.27895487        0.05916082        0.01165922        0.00223838
       -9.07907908        1.34671710        0.02246345        1.25250774        0.05804320        0.01151085        0.00219186
       -9.06906907        1.31522352        0.02155903        1.22336988        0.05682631        0.01132681        0.00214150
       -9.05905906        1.28134661        0.02064939        1.19196458        0.05553253        0.01111197        0.00208814
       -9.04904905        1.24553618        0.01974368        1.15870474        0.05418363        0.01087155        0.00203259
       -9.03903904        1.20822329        0.01884989        1.12398659        0.05280026        0.01061092        0.00197563
       -9.02902903        1.16981499        0.01797481        1.08818515        0.05140156        0.01033547        0.00191800
       -9.01901902        1.13069069        0.01712415        1.05165102        0.05000480        0.01005038        0.00186034
       -9.00900901        1.09119988        0.01630253        1.01470853        0.04862509        0.00976050        0.00180323
       -8.99899900        1.05166098        0.01551363        0.97765479        0.04727519        0.00947022        0.00174715
       -8.98898899        1.01236110        0.01476025        0.94075956        0.04596542        0.00918339        0.00169248
       -8.97897898        0.97355646        0.01404442        0.90426573        0.04470359        0.00890319        0.00163952
       -8.96896897        0.93547349        0.01336751        0.86839021        0.04349511        0.00863217        0.00158849
       -8.95895896        0.89831024        0.01273033        0.83332512        0.04234314        0.00837216        0.00153949
       -8.94894895        0.86223827        0.01213320        0.79923930        0.04124878        0.00812441        0.00149258
       -8.93893894        0.82740465        0.01157607        0.76627991        0.04021142        0.00788951        0.00144774
       -8.92892893        0.79393440        0.01105856        0.73457421        0.03922913        0.00766760        0.00140490
       -8.91891892        0.76193282        0.01058004        0.70423145        0.03829902        0.00745835        0.00136395
       -8.90890891        0.73148811        0.01013971        0.67534472        0.03741774        0.00726117        0.00132478
       -8.89889890        0.70267374        0.00973662        0.64799280        0.03658186        0.00707522        0.00128723
       -8.88888889        0.67555079        0.00936971        0.62224191        0.03578837        0.00689961        0.00125120
       -8.87887888        0.65016990        0.00903788        0.59814711        0.03503494        0.00673341        0.00121656
       -8.86886887        0.62657291        0.00874000        0.57575355        0.03432032        0.00657582        0.00118322
       -8.85885886        0.60479388        0.00847492        0.55509721        0.03364446        0.00642616        0.00115113
       -8.84884885        0.58485955        0.00824149        0.53620517        0.03300865        0.00628398        0.00112026
       -8.83883884        0.56678925        0.00803858        0.51909551        0.03241550        0.00614904        0.00109062
       -8.82882883        0.55059401        0.00786502        0.50377656        0.03186886        0.00602133        0.00106225
       -8.81881882        0.53627530        0.00771966        0.49024586        0.03137353        0.00590104        0.00103522
       -8.80880881        0.52382319        0.00760130        0.47848866        0.03093504        0.00578857        0.00100962
       -8.79879880        0.51321421        0.00750868        0.46847633        0.03055923        0.00568443        0.00098554
       -8.78878879        0.50440917        0.00744045        0.46016452        0.03025188        0.00558922        0.00096310
       -8.77877878        0.49735099        0.00739514        0.45349163        0.03001828        0.00550356        0.00094239
       -8.76876877        0.49196287        0.00737110        0.44837745        0.02986279        0.00542803        0.00092351
       -8.75875876        0.48814696        0.00736650        0.44472231        0.02978849        0.00536312        0.00090653
       -8.74874875        0.48578375        0.00737928        0.44240690        0.02979688        0.00530919        0.00089149
       -8.73873874        0.48473233        0.00740712        0.44129281        0.02988758        0.00526640        0.00087842
       -8.72872873        0.48483158        0.00744742        0.44122393        0.03005819        0.00523472        0.00086732
       -8.71871872        0.48590236        0.00749730        0.44202879        0.03030422        0.00521390        0.00085816
       -8.70870871        0.48775077        0.00755362        0.44352368        0.03061915        0.00520345        0.00085087
       -8.69869870        0.49017215        0.00761298        0.44551663        0.03099448        0.00520269        0.00084537
       -8.68868869        0.49295603        0.00767180        0.44781194        0.03142001        0.00521073        0.00084155
       -8.67867868        0.49589142        0.00772635        0.45021521        0.03188407        0.00522650        0.00083928
       -8.66866867        0.49877252        0.00777286        0.45253851        0.03237391        0.00524883        0.00083842
       -8.65865866        0.50140442        0.00780759        0.45460558        0.03287602        0.00527642        0.00083881
       -8.64864865        0.50360843        0.00782700        0.45625662        0.03337660        0.00530793        0.00084027
       -8.63863864        0.50522693        0.00782782        0.45735253        0.03386192        0.00534201        0.00084265
       -8.62862863        0.50612737        0.00780719        0.45777837        0.03431873        0.00537733        0.00084575
       -8.61861862        0.50620526        0.00776278        0.45744583        0.03473466        0.00541259        0.00084941
       -8.60860861        0.50538604        0.00769290        0.45629461        0.03509847        0.00544663        0.00085343
       -8.59859860        0.50362569        0.00759657        0.45429274        0.03540038        0.00547835        0.00085765
       -8.58858859        0.50091025        0.00747358        0.45143574        0.03563223        0.00550681        0.00086189
       -8.57857858        0.49725423        0.00732452        0.44774491        0.03578765        0.00553120        0.00086596
       -8.56856857        0.49269816        0.00715075        0.44326471        0.03586212        0.00555087        0.00086970
       -8.55855856        0.48730537        0.00695438        0.43805970        0.03585303        0.00556532        0.00087295
       -8.54854855        0.48115852        0.00673818        0.43221099        0.03575961        0.00557419        0.00087554
       -8.53853854        0.47435578        0.00650547        0.42581271        0.03558296        0.00557730        0.00087735
       -8.52852853        0.46700726        0.00625997        0.41896854        0.03532590        0.00557461        0.00087823
       -8.51851852        0.45923164        0.00600574        0.41178866        0.03499293        0.00556623        0.00087809
       -8.50850851        0.45115334        0.00574693        0.40438702        0.03459013        0.00555243        0.00087684
       -8.49849850        0.44290025        0.00548773        0.39687939        0.03412509        0.00553362        0.00087443
       -8.48848849        0.43460201        0.00523220        0.38938178        0.03360680        0.00551037        0.00087086
       -8.47847848        0.42638893        0.00498419        0.38200959        0.03304559        0.00548340        0.00086615
       -8.46846847        0.41839139        0.00474724        0.37487711        0.03245305        0.00545361        0.00086038
