# total density of states output by FHI-aims 
# The energy reference for this output is the chemical potential, mu =       -5.106688 eV
#    Energy (eV)      DOS 
         -4.89331207         72.50687149
         -4.88330206         76.05026271
         -4.87329205         79.55106160
         -4.86328204         82.98050676
         -4.85327203         86.31024102
         -4.84326202         89.51259632
         -4.83325201         92.56084022
         -4.82324200         95.42939876
         -4.81323199         98.09407195
         -4.80322198        100.53225640
         -4.79321197        102.72318570
         -4.78320196        104.64819294
         -4.77319195        106.29099289
         -4.76318194        107.63797426
         -4.75317193        108.67848655
         -4.74316192        109.40510171
         -4.73315191        109.81382943
         -4.72314190        109.90426573
         -4.71313189        109.67965837
         -4.70312188        109.14687827
         -4.69311187        108.31629323
         -4.68310186        107.20154793
         -4.67309185        105.81926085
         -4.66308184        104.18865477
         -4.65307183        102.33114067
         -4.64306182        100.26987650
         -4.63305181         98.02932094
         -4.62304180         95.63479943
         -4.61303179         93.11209545
         -4.60302178         90.48707474
         -4.59301177         87.78534577
         -4.58300176         85.03195559
         -4.57299175         82.25111779
         -4.56298174         79.46596862
         -4.55297173         76.69834797
         -4.54296172         73.96860431
         -4.53295171         71.29542556
         -4.52294170         68.69570100
         -4.51293169         66.18442205
         -4.50292168         63.77463118
         -4.49291167         61.47742810
         -4.48290166         59.30204092
         -4.47289165         57.25596622
         -4.46288164         55.34517767
         -4.45287163         53.57439729
         -4.44286162         51.94741795
         -4.43285161         50.46746068
         -4.42284160         49.13754672
         -4.41283159         47.96086161
         -4.40282158         46.94108829
         -4.39281157         46.08268750
         -4.38280156         45.39110608
         -4.37279155         44.87289853
         -4.36278154         44.53575109
         -4.35277153         44.38840333
         -4.34276152         44.44046659
         -4.33275151         44.70214333
         -4.32274150         45.18385492
         -4.31273149         45.89578875
         -4.30272148         46.84737772
         -4.29271147         48.04672765
         -4.28270146         49.50000966
         -4.27269145         51.21083692
         -4.26268144         53.17964698
         -4.25267143         55.40311299
         -4.24266142         57.87360941
         -4.23265141         60.57875897
         -4.22264140         63.50108894
         -4.21263139         66.61782387
         -4.20262138         69.90084019
         -4.19261137         73.31680380
         -4.18260136         76.82750569
         -4.17259135         80.39040253
         -4.16258134         83.95935927
         -4.15257133         87.48557992
         -4.14256132         90.91870129
         -4.13255131         94.20801395
         -4.12254130         97.30376501
         -4.11253129        100.15849043
         -4.10252128        102.72832073
         -4.09251127        104.97420280
         -4.08250126        106.86298407
         -4.07249125        108.36831125
         -4.06248124        109.47130552
         -4.05247123        110.16098747
         -4.04246122        110.43443811
         -4.03245121        110.29669581
         -4.02244120        109.76040120
         -4.01243119        108.84521401
         -4.00242118        107.57703421
         -3.99241117        105.98706681
         -3.98240116        104.11077345
         -3.97239115        101.98675491
         -3.96238114         99.65560793
         -3.95237113         97.15879673
         -3.94236112         94.53757547
         -3.93235111         91.83199282
         -3.92234110         89.08000484
         -3.91233109         86.31671640
         -3.90232108         83.57376676
         -3.89231107         80.87886932
         -3.88230106         78.25551087
         -3.87229105         75.72281077
         -3.86228104         73.29553542
         -3.85227103         70.98425842
         -3.84226102         68.79565217
         -3.83225101         66.73289142
         -3.82224100         64.79614555
         -3.81223099         62.98313260
         -3.80222098         61.28970611
         -3.79221097         59.71044481
         -3.78220096         58.23921614
         -3.77219095         56.86968742
         -3.76218094         55.59576202
         -3.75217093         54.41192404
         -3.74216092         53.31348067
         -3.73215091         52.29669844
         -3.72214090         51.35883614
         -3.71213089         50.49808279
         -3.70212088         49.71341435
         -3.69211087         49.00438626
         -3.68210086         48.37088108
         -3.67209085         47.81283166
         -3.66208084         47.32993939
         -3.65207083         46.92140618
         -3.64206082         46.58569595
         -3.63205081         46.32033920
         -3.62204080         46.12179069
         -3.61203079         45.98534708
         -3.60202078         45.90512816
         -3.59201077         45.87412188
         -3.58200076         45.88429030
         -3.57199075         45.92673073
         -3.56198074         45.99188343
         -3.55197073         46.06977525
         -3.54196072         46.15028668
         -3.53195071         46.22342879
         -3.52194070         46.27961613
         -3.51193069         46.30992268
         -3.50192068         46.30630893
         -3.49191067         46.26181109
         -3.48190066         46.17068614
         -3.47189065         46.02851015
         -3.46188064         45.83223091
         -3.45187063         45.58017920
         -3.44186062         45.27204607
         -3.43185061         44.90883529
         -3.42184060         44.49280097
         -3.41183059         44.02738012
         -3.40182058         43.51712826
         -3.39181057         42.96766367
         -3.38180056         42.38562269
         -3.37179055         41.77862497
         -3.36178054         41.15524384
         -3.35177053         40.52497448
         -3.34176052         39.89819001
         -3.33175051         39.28607530
         -3.32174050         38.70052813
         -3.31173049         38.15401983
         -3.30172048         37.65940972
         -3.29171047         37.22971211
         -3.28170046         36.87781868
         -3.27169045         36.61618347
         -3.26168044         36.45648197
         -3.25167043         36.40925876
         -3.24166042         36.48358057
         -3.23165041         36.68671215
         -3.22164040         37.02383200
         -3.21163039         37.49780283
         -3.20162038         38.10900880
         -3.19161037         38.85526762
         -3.18160036         39.73182175
         -3.17159035         40.73140839
         -3.16158034         41.84440486
         -3.15157033         43.05904274
         -3.14156032         44.36168236
         -3.13155031         45.73713853
         -3.12154030         47.16904829
         -3.11153029         48.64027217
         -3.10152028         50.13332182
         -3.09151027         51.63080754
         -3.08150026         53.11590027
         -3.07149025         54.57280225
         -3.06148024         55.98721945
         -3.05147023         57.34682707
         -3.04146022         58.64171611
         -3.03145021         59.86480554
         -3.02144020         61.01220108
         -3.01143019         62.08347796
         -3.00142018         63.08186329
         -2.99141017         64.01429265
         -2.98140016         64.89131774
         -2.97139015         65.72684563
         -2.96138014         66.53769754
         -2.95137013         67.34298435
         -2.94136012         68.16330755
         -2.93135011         69.01980754
         -2.92134010         69.93309464
         -2.91133009         70.92211065
         -2.90132008         72.00298012
         -2.89131007         73.18791769
         -2.88130006         74.48426199
         -2.87129005         75.89370452
         -2.86128004         77.41177566
         -2.85127003         79.02763726
         -2.84126002         80.72421449
         -2.83125001         82.47867824
         -2.82124000         84.26326634
         -2.81122999         86.04640755
         -2.80121998         87.79408973
         -2.79120997         89.47139427
         -2.78119996         91.04410472
         -2.77118995         92.48028989
         -2.76117994         93.75176177
         -2.75116993         94.83531602
         -2.74115992         95.71367791
         -2.73114991         96.37609715
         -2.72113990         96.81856073
         -2.71112989         97.04362023
         -2.70111988         97.05985748
         -2.69110987         96.88103748
         -2.68109986         96.52501798
         -2.67108985         96.01249935
         -2.66107984         95.36570587
         -2.65106983         94.60708907
         -2.64105982         93.75813694
         -2.63104981         92.83835940
         -2.62103980         91.86450274
         -2.61102979         90.85002533
         -2.60101978         89.80484569
         -2.59100977         88.73535377
         -2.58099976         87.64465860
         -2.57098975         86.53303193
         -2.56097974         85.39849782
         -2.55096973         84.23751394
         -2.54095972         83.04569014
         -2.53094971         81.81849384
         -2.52093970         80.55189898
         -2.51092969         79.24294418
         -2.50091968         77.89017632
         -2.49090967         76.49396571
         -2.48089966         75.05668898
         -2.47088965         73.58278385
         -2.46087964         72.07868675
         -2.45086963         70.55266909
         -2.44085962         69.01459063
         -2.43084961         67.47559016
         -2.42083960         65.94773342
         -2.41082959         64.44363720
         -2.40081958         62.97608693
         -2.39080957         61.55766281
         -2.38079956         60.20038740
         -2.37078955         58.91540516
         -2.36077954         57.71270246
         -2.35076953         56.60087443
         -2.34075952         55.58694326
         -2.33074951         54.67623060
         -2.32073950         53.87228520
         -2.31072949         53.17686504
         -2.30071948         52.58997139
         -2.29070947         52.10993075
         -2.28069946         51.73351882
         -2.27068945         51.45611920
         -2.26067944         51.27190860
         -2.25066943         51.17405941
         -2.24065942         51.15495055
         -2.23064941         51.20637781
         -2.22063940         51.31975604
         -2.21062939         51.48630687
         -2.20061938         51.69722783
         -2.19060937         51.94384055
         -2.18059936         52.21771796
         -2.17058935         52.51079206
         -2.16057934         52.81544517
         -2.15056933         53.12458835
         -2.14055932         53.43173047
         -2.13054931         53.73104122
         -2.12053930         54.01740978
         -2.11052929         54.28649979
         -2.10051928         54.53479956
         -2.09050927         54.75966513
         -2.08049926         54.95935280
         -2.07048925         55.13303749
         -2.06047924         55.28081306
         -2.05046923         55.40367198
         -2.04045922         55.50346282
         -2.03044921         55.58282552
         -2.02043920         55.64510646
         -2.01042919         55.69425686
         -2.00041918         55.73471907
         -1.99040917         55.77130661
         -1.98039916         55.80908345
         -1.97038915         55.85324787
         -1.96037914         55.90902515
         -1.95036913         55.98157177
         -1.94035912         56.07589194
         -1.93034911         56.19676588
         -1.92033910         56.34868708
         -1.91032909         56.53580500
         -1.90031908         56.76186882
         -1.89030907         57.03016781
         -1.88029906         57.34346465
         -1.87028905         57.70391956
         -1.86027904         58.11300465
         -1.85026903         58.57141054
         -1.84025902         59.07894944
         -1.83024901         59.63446102
         -1.82023900         60.23572924
         -1.81022899         60.87941907
         -1.80021898         61.56104233
         -1.79020897         62.27496079
         -1.78019896         63.01443305
         -1.77018895         63.77170889
         -1.76017894         64.53817165
         -1.75016893         65.30452567
         -1.74015892         66.06102238
         -1.73014891         66.79771545
         -1.72013890         67.50473326
         -1.71012889         68.17255499
         -1.70011888         68.79227658
         -1.69010887         69.35585281
         -1.68009886         69.85630349
         -1.67008885         70.28787381
         -1.66007884         70.64614154
         -1.65006883         70.92806720
         -1.64005882         71.13198648
         -1.63004881         71.25754764
         -1.62003880         71.30559965
         -1.61002879         71.27803975
         -1.60001878         71.17763144
         -1.59000877         71.00780529
         -1.57999876         70.77245637
         -1.56998875         70.47575149
         -1.55997874         70.12195887
         -1.54996873         69.71531067
         -1.53995872         69.25990582
         -1.52994871         68.75965701
         -1.51993870         68.21828115
         -1.50992869         67.63932862
         -1.49991868         67.02624218
         -1.48990867         66.38243350
         -1.47989866         65.71136294
         -1.46988865         65.01660791
         -1.45987864         64.30190641
         -1.44986863         63.57116496
         -1.43985862         62.82842502
         -1.42984861         62.07778660
         -1.41983860         61.32329427
         -1.40982859         60.56879528
         -1.39981858         59.81778464
         -1.38980857         59.07325410
         -1.37979856         58.33756313
         -1.36978855         57.61234839
         -1.35977854         56.89848460
         -1.34976853         56.19610446
         -1.33975852         55.50467901
         -1.32974851         54.82315273
         -1.31973850         54.15012150
         -1.30972849         53.48403612
         -1.29971848         52.82341081
         -1.28970847         52.16701456
         -1.27969846         51.51402481
         -1.26968845         50.86412613
         -1.25967844         50.21754200
         -1.24966843         49.57499469
         -1.23965842         48.93759554
         -1.22964841         48.30667522
         -1.21963840         47.68356966
         -1.20962839         47.06938240
         -1.19961838         46.46474643
         -1.18960837         45.86960921
         -1.17959836         45.28306265
         -1.16958835         44.70323581
         -1.15957834         44.12726267
         -1.14956833         43.55133063
         -1.13955832         42.97080846
         -1.12954831         42.38044551
         -1.11953830         41.77462828
         -1.10952829         41.14767553
         -1.09951828         40.49415035
         -1.08950827         39.80916601
         -1.07949826         39.08866356
         -1.06948825         38.32964090
         -1.05947824         37.53031713
         -1.04946823         36.69022082
         -1.03945822         35.81019635
         -1.02944821         34.89232850
         -1.01943820         33.93979151
         -1.00942819         32.95663392
         -0.99941818         31.94751551
         -0.98940817         30.91741586
         -0.97939816         29.87133625
         -0.96938815         28.81401717
         -0.95937814         27.74969245
         -0.94936813         26.68189859
         -0.93935812         25.61335312
         -0.92934811         24.54591111
         -0.91933810         23.48060192
         -0.90932809         22.41774242
         -0.89931808         21.35711620
         -0.88930807         20.29820272
         -0.87929806         19.24043640
         -0.86928805         18.18347275
         -0.85927804         17.12743834
         -0.84926803         16.07314274
         -0.83925802         15.02223416
         -0.82924801         13.97728525
         -0.81923800         12.94180193
         -0.80922799         11.92015460
         -0.79921798         10.91743766
         -0.78920797          9.93926907
         -0.77919796          8.99154622
         -0.76918795          8.08017735
         -0.75917794          7.21080872
         -0.74916793          6.38856722
         -0.73915792          5.61783563
         -0.72914791          4.90207413
         -0.71913790          4.24369734
         -0.70912789          3.64401094
         -0.69911788          3.10320768
         -0.68910787          2.62041793
         -0.67909786          2.19380676
         -0.66908785          1.82070704
         -0.65907784          1.49777702
         -0.64906783          1.22117045
         -0.63905782          0.98670809
         -0.62904781          0.79004127
         -0.61903780          0.62679950
         -0.60902779          0.49271716
         -0.59901778          0.38373575
         -0.58900777          0.29608084
         -0.57899776          0.22631436
         -0.56898775          0.17136416
         -0.55897774          0.12853403
         -0.54896773          0.09549757
         -0.53895772          0.07027967
         -0.52894771          0.05122935
         -0.51893770          0.03698702
         -0.50892769          0.02644916
         -0.49891768          0.01873259
         -0.48890767          0.01314012
         -0.47889766          0.00912872
         -0.46888765          0.00628091
         -0.45887764          0.00427988
         -0.44886763          0.00288823
         -0.43885762          0.00193027
         -0.42884761          0.00127757
         -0.41883760          0.00083739
         -0.40882759          0.00054356
         -0.39881758          0.00034941
         -0.38880757          0.00022243
         -0.37879756          0.00014022
         -0.36878755          0.00008754
         -0.35877754          0.00005412
         -0.34876753          0.00003313
         -0.33875752          0.00002008
         -0.32874751          0.00001206
         -0.31873750          0.00000717
         -0.30872749          0.00000422
         -0.29871748          0.00000247
         -0.28870747          0.00000143
         -0.27869746          0.00000084
         -0.26868745          0.00000051
         -0.25867744          0.00000035
         -0.24866743          0.00000031
         -0.23865742          0.00000039
         -0.22864741          0.00000059
         -0.21863740          0.00000100
         -0.20862739          0.00000172
         -0.19861738          0.00000298
         -0.18860737          0.00000511
         -0.17859736          0.00000871
         -0.16858735          0.00001468
         -0.15857734          0.00002452
         -0.14856733          0.00004056
         -0.13855732          0.00006642
         -0.12854731          0.00010771
         -0.11853730          0.00017297
         -0.10852729          0.00027504
         -0.09851728          0.00043307
         -0.08850727          0.00067526
         -0.07849726          0.00104264
         -0.06848725          0.00159423
