#  aims_uuid : 3D7686BD-5F3B-4F4A-A2B5-8B7092BD9509                                
#  angular momentum projected density of states for species S as calculated by FHI-aims 
# The energy reference for this output is the vacuum level =       0.000000 eV
#      Energy (eV)         total dos     l= 0              l= 1              l= 2              l= 3              l= 4
      -10.00000000        1.15887780        0.07677719        1.01791431        0.05652925        0.00682928        0.00082778
       -9.97997998        1.24155937        0.08857093        1.08101325        0.06371480        0.00747323        0.00078716
       -9.95995996        1.32319498        0.10021571        1.14340129        0.07072916        0.00809541        0.00075340
       -9.93993994        1.40049435        0.11110875        1.20281393        0.07717284        0.00866630        0.00073252
       -9.91991992        1.46886128        0.12064101        1.25571382        0.08262580        0.00915293        0.00072772
       -9.89989990        1.52317830        0.12826966        1.29793607        0.08670900        0.00952436        0.00073922
       -9.87987988        1.55873572        0.13357983        1.32549150        0.08914273        0.00975708        0.00076457
       -9.85985986        1.57208601        0.13632593        1.33533276        0.08978861        0.00983922        0.00079949
       -9.83983984        1.56166728        0.13645010        1.32593805        0.08866768        0.00977259        0.00083887
       -9.81981982        1.52812291        0.13408113        1.29763821        0.08595320        0.00957253        0.00087784
       -9.79979980        1.47430732        0.12951888        1.25266797        0.08194208        0.00926564        0.00091274
       -9.77977978        1.40499338        0.12320652        1.19494744        0.07701184        0.00888596        0.00094162
       -9.75975976        1.32630191        0.11568959        1.12960768        0.07157020        0.00847009        0.00096434
       -9.73973974        1.24488714        0.10755976        1.06228941        0.06600388        0.00805191        0.00098217
       -9.71971972        1.16695591        0.09938458        0.99828426        0.06063271        0.00765742        0.00099694
       -9.69969970        1.09726586        0.09163164        0.94164854        0.05567486        0.00730070        0.00101012
       -9.67967968        1.03830715        0.08460270        0.89447179        0.05122882        0.00698194        0.00102190
       -9.65965966        0.98988174        0.07839555        0.85649135        0.04727594        0.00668809        0.00103081
       -9.63963964        0.94922987        0.07290740        0.82518864        0.04370377        0.00639636        0.00103370
       -9.61961962        0.91172327        0.06788223        0.79638868        0.04034593        0.00608003        0.00102640
       -9.59959960        0.87198925        0.06299187        0.76524765        0.03702985        0.00571515        0.00100473
       -9.57957958        0.82520587        0.05792978        0.72740206        0.03362181        0.00528667        0.00096556
       -9.55955956        0.76826096        0.05249311        0.68000811        0.03005940        0.00479248        0.00090786
       -9.53953954        0.70051577        0.04663314        0.62243892        0.02636591        0.00424464        0.00083316
       -9.51951952        0.62403759        0.04046462        0.55651338        0.02264600        0.00366781        0.00074578
       -9.49949950        0.54331933        0.03423718        0.48626667        0.01906744        0.00309567        0.00065237
       -9.47947948        0.46463405        0.02828185        0.41738797        0.01583621        0.00256664        0.00056138
       -9.45945946        0.39523557        0.02295000        0.35651084        0.01317239        0.00212006        0.00048228
       -9.43943944        0.34259880        0.01856002        0.31052827        0.01129189        0.00179365        0.00042497
       -9.41941942        0.31380999        0.01536088        0.28603249        0.01039493        0.00162245        0.00039924
       -9.39939940        0.31510758        0.01351391        0.28888209        0.01065872        0.00163848        0.00041437
       -9.37937938        0.35148474        0.01308795        0.32381852        0.01222918        0.00187046        0.00047864
       -9.35935936        0.42623420        0.01406074        0.39402555        0.01520707        0.00234217        0.00059865
       -9.33933934        0.54035951        0.01632065        0.50056518        0.01962623        0.00306915        0.00077831
       -9.31931932        0.69188309        0.01966688        0.64171918        0.02542600        0.00405356        0.00101746
       -9.29929930        0.87520911        0.02381106        0.81238443        0.03242475        0.00527825        0.00131062
       -9.27927928        1.08079817        0.02838578        1.00376049        0.04030409        0.00670187        0.00164594
       -9.25925926        1.29542727        0.03296611        1.20358507        0.04861414        0.00825688        0.00200507
       -9.23923924        1.50321759        0.03710638        1.39708861        0.05680600        0.00985233        0.00236427
       -9.21921922        1.68742254        0.04038968        1.56866276        0.06429143        0.01138193        0.00269674
       -9.19919920        1.83273069        0.04248185        1.70401477        0.07052116        0.01273678        0.00297612
       -9.17917918        1.92763035        0.04317837        1.79238475        0.07506665        0.01382034        0.00318025
       -9.15915916        1.96628649        0.04243261        1.82830991        0.07768692        0.01456238        0.00329468
       -9.13913914        1.94944370        0.04035803        1.81247800        0.07836416        0.01492873        0.00331478
       -9.11911912        1.88409009        0.03720295        1.75141786        0.07729888        0.01492430        0.00324610
       -9.09909910        1.78193238        0.03330374        1.65607202        0.07486501        0.01458883        0.00310279
       -9.07907908        1.65704464        0.02902736        1.53959081        0.07153531        0.01398661        0.00290454
       -9.05905906        1.52326080        0.02471595        1.41488508        0.06779397        0.01319298        0.00267282
       -9.03903904        1.39192040        0.02064441        1.29251240        0.06405527        0.01228104        0.00242729
       -9.01901902        1.27044206        0.01699750        1.17934529        0.06060444        0.01131156        0.00218326
       -8.99899900        1.16194439        0.01386735        1.07822799        0.05757059        0.01032790        0.00195056
       -8.97897898        1.06584606        0.01126744        0.98855515        0.05493348        0.00935619        0.00173380
       -8.95895896        0.97914572        0.00915664        0.90748647        0.05255936        0.00840949        0.00153375
       -8.93893894        0.89796626        0.00746564        0.83140199        0.05025534        0.00749412        0.00134917
       -8.91891892        0.81896119        0.00612012        0.75721685        0.04782973        0.00661588        0.00117861
       -8.89889890        0.74029381        0.00505681        0.68328478        0.04514597        0.00578461        0.00102164
       -8.87887888        0.66206064        0.00423139        0.60977371        0.04215983        0.00501625        0.00087946
       -8.85885886        0.58618325        0.00361912        0.53854322        0.03893379        0.00433233        0.00075479
       -8.83883884        0.51589962        0.00321007        0.47265377        0.03562697        0.00375755        0.00065125
       -8.81881882        0.45503346        0.00300136        0.41567961        0.03246384        0.00331609        0.00057256
       -8.79879880        0.40721624        0.00298877        0.37098944        0.02968879        0.00302766        0.00052158
       -8.77877878        0.37520111        0.00315928        0.34112167        0.02751654        0.00290394        0.00049967
       -8.75875876        0.36036247        0.00348611        0.32733537        0.02608897        0.00294588        0.00050615
       -8.73873874        0.36243221        0.00392694        0.32937744        0.02544735        0.00314232        0.00053817
       -8.71871872        0.37948831        0.00442575        0.34547568        0.02552577        0.00347019        0.00059092
       -8.69869870        0.40818215        0.00491803        0.37254316        0.02616647        0.00389640        0.00065809
       -8.67867868        0.44416297        0.00533840        0.40655783        0.02715280        0.00438130        0.00073264
       -8.65865866        0.48263270        0.00562934        0.44306079        0.02825166        0.00488325        0.00080767
       -8.63863864        0.51894372        0.00574918        0.47769847        0.02925521        0.00536361        0.00087724
       -8.61861862        0.54914418        0.00567765        0.50672555        0.03001259        0.00579131        0.00093707
       -8.59859860        0.57038403        0.00541787        0.52738986        0.03044543        0.00614602        0.00098485
       -8.57857858        0.58112177        0.00499438        0.53814211        0.03054565        0.00641941        0.00102021
       -8.55855856        0.58111213        0.00444784        0.53864718        0.03035859        0.00661412        0.00104441
       -8.53853854        0.57119876        0.00382760        0.52961310        0.02995763        0.00674083        0.00105959
       -8.51851852        0.55297216        0.00318399        0.51248833        0.02941778        0.00681393        0.00106813
       -8.49849850        0.52837338        0.00256152        0.48909896        0.02879425        0.00684679        0.00107185
       -8.47847848        0.49932465        0.00199437        0.46130092        0.02811018        0.00684762        0.00107156
       -8.45845846        0.46745163        0.00150439        0.43070943        0.02735426        0.00681682        0.00106673
       -8.43843844        0.43393482        0.00110151        0.39854402        0.02648720        0.00674645        0.00105565
       -8.41841842        0.39949779        0.00078598        0.36559966        0.02545441        0.00662198        0.00103577
       -8.39839840        0.36451340        0.00055169        0.33232933        0.02420188        0.00642612        0.00100437
       -8.37837838        0.32919016        0.00039004        0.29900467        0.02269225        0.00614384        0.00095935
       -8.35835836        0.29379128        0.00029372        0.26591157        0.02091840        0.00576760        0.00089999
       -8.33833834        0.25883972        0.00026043        0.23353776        0.01891255        0.00530143        0.00082756
       -8.31831832        0.22527223        0.00029635        0.20271797        0.01674922        0.00476306        0.00074563
       -8.29829830        0.19452185        0.00041936        0.17471682        0.01454221        0.00418343        0.00066003
       -8.27827828        0.16852618        0.00066175        0.15124576        0.01243635        0.00360386        0.00057846
       -8.25825826        0.14967159        0.00107185        0.13442176        0.01059645        0.00307169        0.00050984
       -8.23823824        0.14068774        0.00171353        0.12667933        0.00919611        0.00263531        0.00046347
       -8.21821822        0.14450065        0.00266248        0.13064199        0.00840834        0.00233962        0.00044822
       -8.19819820        0.16404179        0.00399828        0.14895040        0.00839885        0.00222263        0.00047164
       -8.17817818        0.20200417        0.00579189        0.18403904        0.00932106        0.00231306        0.00053913
       -8.15815816        0.26054099        0.00808981        0.23785858        0.01131043        0.00262897        0.00065320
       -8.13813814        0.34092262        0.01089759        0.31155986        0.01447557        0.00317682        0.00081278
       -8.11811812        0.44319662        0.01416677        0.40518193        0.01888435        0.00395073        0.00101283
       -8.09809810        0.56592209        0.01778987        0.51741065        0.02454525        0.00493199        0.00124433
       -8.07807808        0.70605983        0.02160718        0.64548235        0.03138640        0.00608903        0.00149488
       -8.05805806        0.85908291        0.02542650        0.78529100        0.03923713        0.00737837        0.00174990
       -8.03803804        1.01932939        0.02905357        0.93171708        0.04781751        0.00874685        0.00199437
       -8.01801802        1.18056031        0.03232731        1.07914182        0.05674124        0.01013510        0.00221484
       -7.99799800        1.33662894        0.03515193        1.22205883        0.06553501        0.01148197        0.00240120
       -7.97797798        1.48213092        0.03751744        1.35566191        0.07367435        0.01272929        0.00254794
       -7.95795796        1.61290039        0.03950269        1.47628495        0.08063230        0.01382596        0.00265449
       -7.93793794        1.72624684        0.04125851        1.58159851        0.08593431        0.01473093        0.00272457
       -7.91791792        1.82088488        0.04297366        1.67052129        0.08921074        0.01541449        0.00276469
       -7.89789790        1.89658036        0.04482997        1.74287164        0.09023854        0.01585799        0.00278221
       -7.87787788        1.95360681        0.04695593        1.79884973        0.08896526        0.01605248        0.00278341
       -7.85785786        1.99215936        0.04938870        1.83848991        0.08551185        0.01599685        0.00277204
       -7.83783784        2.01189476        0.05205315        1.86124217        0.08015433        0.01569645        0.00274868
       -7.81781782        2.01174373        0.05476338        1.86581864        0.07328827        0.01516248        0.00271097
       -7.79779780        1.99007403        0.05724790        1.85037653        0.06538233        0.01441254        0.00265473
       -7.77777778        1.94518075        0.05919394        1.81301115        0.05692847        0.01347177        0.00257541
       -7.75775776        1.87597359        0.06030189        1.75243208        0.04839596        0.01237394        0.00246972
       -7.73773774        1.78265634        0.06033803        1.66862546        0.04019455        0.01116154        0.00233677
       -7.71771772        1.66718425        0.05917392        1.56329776        0.03264971        0.00988427        0.00217859
       -7.69769770        1.53334960        0.05680449        1.43995904        0.02599052        0.00859562        0.00199994
       -7.67767768        1.38646503        0.05334263        1.30361826        0.02034868        0.00734799        0.00180748
       -7.65765766        1.23274338        0.04899472        1.16018616        0.01576635        0.00618749        0.00160866
       -7.63763764        1.07856189        0.04402551        1.01576640        0.01220991        0.00514938        0.00141069
       -7.61761762        0.92981732        0.03872228        0.87603265        0.00958725        0.00425535        0.00121979
       -7.59759760        0.79152410        0.03336620        0.74583728        0.00776662        0.00351308        0.00104092
       -7.57757758        0.66770910        0.02821432        0.62910329        0.00659537        0.00291822        0.00087789
       -7.55755756        0.56155517        0.02349199        0.52895424        0.00591738        0.00245784        0.00073373
       -7.53753754        0.47567510        0.01939180        0.44796945        0.00558795        0.00211484        0.00061105
       -7.51751752        0.41237387        0.01607480        0.38842943        0.00548525        0.00187205        0.00051233
       -7.49749750        0.37377627        0.01366979        0.35243369        0.00551744        0.00171542        0.00043993
       -7.47747748        0.36174281        0.01226850        0.34181747        0.00562510        0.00163582        0.00039592
       -7.45745746        0.37755628        0.01191621        0.35785000        0.00577911        0.00162927        0.00038169
       -7.43743744        0.42142387        0.01259902        0.40075697        0.00597456        0.00169581        0.00039751
       -7.41741742        0.49189978        0.01423092        0.46916754        0.00622213        0.00183723        0.00044198
       -7.39739740        0.58538277        0.01664485        0.55963361        0.00653834        0.00205427        0.00051169
       -7.37737738        0.69586529        0.01959260        0.66639109        0.00693675        0.00234378        0.00060106
       -7.35735736        0.81509121        0.02275794        0.78151305        0.00742129        0.00269647        0.00070245
       -7.33733734        0.93320461        0.02578468        0.89553440        0.00798310        0.00309571        0.00080672
       -7.31731732        1.03985422        0.02831794        0.99851350        0.00860081        0.00351784        0.00090413
       -7.29729730        1.12558359        0.03005241        1.08136775        0.00924399        0.00393400        0.00098545
       -7.27727728        1.18323206        0.03077784        1.13721881        0.00987889        0.00431333        0.00104319
       -7.25725726        1.20903456        0.03041157        1.16244824        0.01047500        0.00462716        0.00107258
       -7.23723724        1.20316146        0.02900952        1.15721448        0.01101164        0.00485355        0.00107226
       -7.21721722        1.16957009        0.02675282        1.12530792        0.01148353        0.00498145        0.00104437
       -7.19719720        1.11520854        0.02391275        1.07338286        0.01190482        0.00501394        0.00099419
       -7.17717718        1.04876627        0.02080274        1.00975297        0.01231128        0.00496983        0.00092944
       -7.15715716        0.97925845        0.01772855        0.94302652        0.01276058        0.00488343        0.00085937
       -7.13713714        0.91473784        0.01494725        0.88086445        0.01333019        0.00480215        0.00079381
       -7.11711712        0.86135691        0.01264200        0.82907732        0.01411285        0.00478232        0.00074242
       -7.09709710        0.82288380        0.01091476        0.79116257        0.01520898        0.00488332        0.00071416
       -7.07707708        0.80065195        0.00979377        0.76826497        0.01671558        0.00516076        0.00071686
       -7.05705706        0.79383373        0.00925017        0.75945563        0.01871186        0.00565921        0.00075686
       -7.03703704        0.79989358        0.00921706        0.76218975        0.02124260        0.00640556        0.00083862
       -7.01701702        0.81509657        0.00960614        0.77282045        0.02430201        0.00740372        0.00096425
       -6.99699700        0.83500145        0.01031946        0.78709506        0.02782202        0.00863185        0.00113306
       -6.97697698        0.85492307        0.01125667        0.80061294        0.03166949        0.01004284        0.00134112
       -6.95695696        0.87037976        0.01231964        0.80925467        0.03565569        0.01156852        0.00158123
       -6.93693694        0.87753518        0.01341652        0.80958966        0.03955854        0.01312722        0.00184324
