#  aims_uuid : 3D7686BD-5F3B-4F4A-A2B5-8B7092BD9509                                
#  angular momentum projected density of states for species S as calculated by FHI-aims 
# The energy reference for this output is the chemical potential, mu =      -5.114045 eV
#      Energy (eV)         total dos     l= 0              l= 1              l= 2              l= 3              l= 4
       -4.88595534        2.31775180        0.15355360        2.03582588        0.11305826        0.01365851        0.00165555
       -4.86593532        2.48311321        0.17714104        2.16202215        0.12742930        0.01494641        0.00157431
       -4.84591530        2.64638268        0.20043060        2.28679655        0.14145796        0.01619077        0.00150680
       -4.82589528        2.80097971        0.22221669        2.40562019        0.15434526        0.01733254        0.00146504
       -4.80587526        2.93771201        0.24128126        2.51141841        0.16525109        0.01830581        0.00145544
       -4.78585524        3.04634466        0.25653864        2.59586149        0.17341742        0.01904867        0.00147843
       -4.76583522        3.11745834        0.26715912        2.65097117        0.17828480        0.01951412        0.00152914
       -4.74581520        3.14415808        0.27265148        2.67065275        0.17957649        0.01967839        0.00159898
       -4.72579518        3.12332008        0.27289998        2.65186267        0.17733458        0.01954513        0.00167772
       -4.70577516        3.05623117        0.26816222        2.59526268        0.17190558        0.01914502        0.00175567
       -4.68575514        2.94860019        0.25903790        2.50532226        0.16388332        0.01853125        0.00182546
       -4.66573512        2.80997292        0.24641334        2.38988165        0.15402284        0.01777188        0.00188322
       -4.64571510        2.65259102        0.23137962        2.25920299        0.14313959        0.01694015        0.00192867
       -4.62569508        2.48976293        0.21512007        2.12456774        0.13200701        0.01610379        0.00196433
       -4.60567506        2.33390233        0.19876979        1.99655914        0.12126475        0.01531479        0.00199387
       -4.58565504        2.19452446        0.18326397        1.88328978        0.11134914        0.01460135        0.00202022
       -4.56563502        2.07660957        0.16920610        1.78893865        0.10245720        0.01396383        0.00204379
       -4.54561500        1.97976147        0.15679181        1.71298035        0.09455159        0.01337612        0.00206161
       -4.52559498        1.89846052        0.14581549        1.65037759        0.08740740        0.01279266        0.00206738
       -4.50557496        1.82344998        0.13576512        1.59278023        0.08069185        0.01216000        0.00205279
       -4.48555494        1.74398434        0.12598434        1.53050048        0.07405984        0.01143024        0.00200944
       -4.46553492        1.65041952        0.11586007        1.45481119        0.06724387        0.01057327        0.00193112
       -4.44551490        1.53653105        0.10498665        1.36002465        0.06011916        0.00958488        0.00181571
       -4.42549488        1.40104139        0.09326663        1.24488699        0.05273223        0.00848921        0.00166633
       -4.40547486        1.24808508        0.08092951        1.11303603        0.04529243        0.00733555        0.00149156
       -4.38545484        1.08664800        0.06847454        0.97254213        0.03813530        0.00619129        0.00130474
       -4.36543482        0.92927637        0.05656382        0.83478377        0.03167279        0.00513324        0.00112276
       -4.34541480        0.79047800        0.04590006        0.71302822        0.02634509        0.00424007        0.00096456
       -4.32539478        0.68520281        0.03712004        0.62106155        0.02258400        0.00358727        0.00084995
       -4.30537476        0.62762341        0.03072172        0.57206833        0.02079000        0.00324486        0.00079849
       -4.28535474        0.63021674        0.02702775        0.57776584        0.02131748        0.00327694        0.00082874
       -4.26533472        0.70296920        0.02617579        0.64763697        0.02445829        0.00374088        0.00095727
       -4.24531470        0.85246621        0.02812134        0.78804931        0.03041395        0.00468430        0.00119730
       -4.22529468        1.08071491        0.03264111        1.00112680        0.03925213        0.00613827        0.00155660
       -4.20527466        1.38376009        0.03933353        1.28343304        0.05085154        0.00810706        0.00203491
       -4.18525464        1.75041013        0.04762181        1.62476175        0.06484890        0.01055643        0.00262123
       -4.16523462        2.16158627        0.05677120        2.00751210        0.08060746        0.01340365        0.00329186
       -4.14521460        2.59084257        0.06593179        2.40715957        0.09722743        0.01651366        0.00401012
       -4.12519458        3.00642146        0.07421226        2.79416512        0.11361104        0.01970453        0.00472851
       -4.10517456        3.37482988        0.08077880        3.13731209        0.12858181        0.02276372        0.00539346
       -4.08515454        3.66544501        0.08496310        3.40801507        0.14104122        0.02547341        0.00595220
       -4.06513452        3.85524358        0.08635610        3.58475433        0.15013217        0.02764051        0.00636046
       -4.04511450        3.93255551        0.08486456        3.65660432        0.15537272        0.02912458        0.00658932
       -4.02509448        3.89887002        0.08071541        3.62494055        0.15672726        0.02985728        0.00662953
       -4.00507446        3.76816333        0.07440527        3.50282069        0.15459677        0.02984843        0.00649217
       -3.98505444        3.56384884        0.06660688        3.31212977        0.14972913        0.02917750        0.00620556
       -3.96503442        3.31407465        0.05805416        3.07916847        0.14306987        0.02797307        0.00580907
       -3.94501440        3.04650861        0.04943137        2.82975843        0.13558735        0.02638583        0.00534563
       -3.92499438        2.78382972        0.04128834        2.58501475        0.12811010        0.02456196        0.00485457
       -3.90497436        2.54087515        0.03399457        2.35868242        0.12120863        0.02262301        0.00436652
       -3.88495434        2.32388203        0.02773429        2.15644982        0.11514109        0.02065572        0.00390112
       -3.86493432        2.13168762        0.02253452        1.97710616        0.10986703        0.01871230        0.00346760
       -3.84491430        1.95828908        0.01831296        1.81497077        0.10511894        0.01681891        0.00306750
       -3.82489428        1.79593212        0.01493101        1.66280358        0.10051101        0.01498818        0.00269834
       -3.80487426        1.63792363        0.01224002        1.51443481        0.09565988        0.01323171        0.00235721
       -3.78485424        1.48059012        0.01011343        1.36657183        0.09029242        0.01156918        0.00204328
       -3.76483422        1.32412458        0.00846263        1.21955042        0.08432014        0.01003246        0.00175892
       -3.74481420        1.17237011        0.00723815        1.07708972        0.07786803        0.00866464        0.00150958
       -3.72479418        1.03180266        0.00642008        0.94531066        0.07125433        0.00751508        0.00130251
       -3.70477416        0.91006972        0.00600270        0.83136177        0.06492799        0.00663215        0.00114511
       -3.68475414        0.81443429        0.00597754        0.74198052        0.05937778        0.00605529        0.00104316
       -3.66473412        0.75040280        0.00631859        0.68224386        0.05503316        0.00580785        0.00099934
       -3.64471410        0.72072419        0.00697225        0.65467002        0.05217788        0.00589173        0.00101230
       -3.62469408        0.72486231        0.00785392        0.65875295        0.05089450        0.00628460        0.00107635
       -3.60467406        0.75897329        0.00885155        0.69094834        0.05105123        0.00694032        0.00118184
       -3.58465404        0.81635993        0.00983610        0.74508238        0.05233252        0.00779274        0.00131618
       -3.56463402        0.88832079        0.01067683        0.81311106        0.05430509        0.00876253        0.00146528
       -3.54461400        0.96525967        0.01125869        0.88611649        0.05650273        0.00976642        0.00161534
       -3.52459398        1.03788128        0.01149835        0.95539152        0.05850978        0.01072713        0.00175449
       -3.50457396        1.09828180        0.01135527        1.01344534        0.06002451        0.01158252        0.00187415
       -3.48455394        1.14076100        0.01083569        1.05477352        0.06089016        0.01229194        0.00196969
       -3.46453392        1.16223575        0.00998870        1.07627735        0.06109058        0.01283870        0.00204043
       -3.44451390        1.16221545        0.00889559        1.07728652        0.06071642        0.01322811        0.00208881
       -3.42449388        1.14238738        0.00765512        1.05921706        0.05991449        0.01348153        0.00211918
       -3.40447386        1.10593258        0.00636789        1.02496596        0.05883474        0.01362773        0.00213625
       -3.38445384        1.05673323        0.00512296        0.97818548        0.05758764        0.01369344        0.00214371
       -3.36443382        0.99863399        0.00398867        0.92258765        0.05621946        0.01369509        0.00214312
       -3.34441380        0.93488632        0.00300872        0.86140308        0.05470757        0.01363349        0.00213346
       -3.32439378        0.86785139        0.00220298        0.79707096        0.05297341        0.01349274        0.00211130
       -3.30437376        0.79897645        0.00157192        0.73118136        0.05090781        0.01324381        0.00207154
       -3.28435374        0.72900734        0.00110336        0.66464037        0.04840276        0.01285209        0.00200875
       -3.26433372        0.65836111        0.00078007        0.59799127        0.04538351        0.01228754        0.00191872
       -3.24431370        0.58756418        0.00058743        0.53180583        0.04183587        0.01153505        0.00180000
       -3.22429368        0.51766241        0.00052085        0.46705947        0.03782423        0.01060273        0.00165513
       -3.20427366        0.45052918        0.00059269        0.40542154        0.03349767        0.00952601        0.00149127
       -3.18425364        0.38903048        0.00083872        0.34942118        0.02908375        0.00836676        0.00132007
       -3.16423362        0.33704136        0.00132351        0.30248114        0.02487214        0.00720764        0.00115694
       -3.14421360        0.29933444        0.00214370        0.26883528        0.02119246        0.00614332        0.00101968
       -3.12419358        0.28136897        0.00342704        0.25335252        0.01839190        0.00527056        0.00092694
       -3.10417356        0.28899690        0.00532494        0.26127985        0.01681647        0.00467921        0.00089644
       -3.08415354        0.32808122        0.00799653        0.29789859        0.01679760        0.00444523        0.00094327
       -3.06413352        0.40400792        0.01158372        0.36807770        0.01864214        0.00462610        0.00107826
       -3.04411350        0.52108348        0.01617954        0.47571861        0.02262100        0.00525793        0.00130640
       -3.02409348        0.68184873        0.02179508        0.62312305        0.02895140        0.00635364        0.00162556
       -3.00407346        0.88639883        0.02833342        0.81036920        0.03776909        0.00790147        0.00202565
       -2.98405344        1.13185210        0.03557959        1.03482883        0.04909102        0.00986400        0.00248864
       -2.96403342        1.41213018        0.04321420        1.29097468        0.06277348        0.01217809        0.00298974
       -2.94401340        1.71817923        0.05085284        1.57059472        0.07847510        0.01475679        0.00349977
       -2.92399338        2.03867540        0.05810698        1.86344992        0.09563602        0.01749376        0.00398872
       -2.90397336        2.36114074        0.06465447        2.15830271        0.11348363        0.02027026        0.00442966
       -2.88395334        2.67328172        0.07030373        2.44414027        0.13107133        0.02296403        0.00480237
       -2.86393332        2.96428957        0.07503479        2.71135010        0.14735015        0.02545869        0.00509584
       -2.84391330        3.22583239        0.07900534        2.95259988        0.16126617        0.02765205        0.00530895
       -2.82389328        3.45252899        0.08251703        3.16323055        0.17187029        0.02946201        0.00544911
       -2.80387326        3.64180838        0.08594736        3.34107928        0.17842323        0.03082915        0.00552935
       -2.78385324        3.79320205        0.08966000        3.48578261        0.18047887        0.03171619        0.00556438
       -2.76383322        3.90725684        0.09391193        3.59774062        0.17793233        0.03210518        0.00556678
       -2.74381320        3.98436286        0.09877748        3.67702193        0.17102547        0.03199393        0.00554405
       -2.72379318        4.02383349        0.10410635        3.72252634        0.16031037        0.03139312        0.00549731
       -2.70377316        4.02353016        0.10952677        3.73167814        0.14657817        0.03032517        0.00542190
       -2.68375314        3.98018845        0.11449578        3.70079180        0.13076617        0.02882529        0.00530941
       -2.66373312        3.89039874        0.11838782        3.62605809        0.11385831        0.02694373        0.00515078
       -2.64371310        3.75198061        0.12060367        3.50489635        0.09679314        0.02474804        0.00493941
       -2.62369308        3.56534193        0.12067591        3.33727915        0.08039015        0.02232322        0.00467350
       -2.60367306        3.33439345        0.11834768        3.12661964        0.06530032        0.01976867        0.00435715
       -2.58365304        3.06671994        0.11360879        2.87993820        0.05198177        0.01719132        0.00399985
       -2.56363302        2.77294693        0.10668508        2.60725293        0.04069795        0.01469604        0.00361493
       -2.54361300        2.46550020        0.09798927        2.32038542        0.03153318        0.01237503        0.00321730
       -2.52359298        2.15713431        0.08805085        2.03154310        0.02442019        0.01029880        0.00282136
       -2.50357296        1.85964284        0.07744443        1.75207334        0.01917479        0.00851072        0.00243957
       -2.48355294        1.58305462        0.06673228        1.49168086        0.01553347        0.00702618        0.00208183
       -2.46353292        1.33542333        0.05642856        1.25821164        0.01319092        0.00583644        0.00175577
       -2.44351290        1.12311468        0.04698393        1.05791272        0.01183489        0.00491568        0.00146745
       -2.42349288        0.95135415        0.03878359        0.89594276        0.01117601        0.00422969        0.00122210
       -2.40347286        0.82475173        0.03214964        0.77686272        0.01097060        0.00374411        0.00102466
       -2.38345284        0.74755697        0.02733966        0.70487162        0.01103497        0.00343086        0.00087986
       -2.36343282        0.72349090        0.02453716        0.68363995        0.01125029        0.00327166        0.00079184
       -2.34341280        0.75511913        0.02383267        0.71570622        0.01155830        0.00325856        0.00076339
       -2.32339278        0.84285602        0.02519839        0.80152176        0.01194921        0.00339163        0.00079502
       -2.30337276        0.98380999        0.02846232        0.93834490        0.01244435        0.00367447        0.00088396
       -2.28335274        1.17077845        0.03329032        1.11927940        0.01307679        0.00410855        0.00102339
       -2.26333272        1.39174622        0.03918598        1.33279693        0.01387361        0.00468758        0.00120213
       -2.24331270        1.63020083        0.04551680        1.56304346        0.01484271        0.00539296        0.00140491
       -2.22329268        1.86643027        0.05157039        1.79108866        0.01596634        0.00619143        0.00161345
       -2.20327266        2.07973174        0.05663702        1.99704902        0.01720174        0.00703569        0.00180827
       -2.18325264        2.25119219        0.06010601        2.16275913        0.01848813        0.00786801        0.00197091
       -2.16323262        2.36649014        0.06155690        2.27446225        0.01975793        0.00862667        0.00208639
       -2.14321260        2.41809542        0.06082433        2.32492140        0.02095016        0.00925435        0.00214518
       -2.12319258        2.40634882        0.05802018        2.31445351        0.02202346        0.00970712        0.00214454
       -2.10317256        2.33916513        0.05350668        2.25063952        0.02296726        0.00996293        0.00208874
       -2.08315254        2.23044071        0.04782642        2.14678816        0.02380985        0.01002791        0.00198838
       -2.06313252        2.09755473        0.04160628        2.01952703        0.02462282        0.00993970        0.00185889
       -2.04311250        1.95853770        0.03545780        1.88607280        0.02552145        0.00976690        0.00171875
       -2.02309248        1.82949531        0.02989508        1.76174757        0.02666070        0.00960434        0.00158761
       -2.00307246        1.72273262        0.02528451        1.65817252        0.02822607        0.00956469        0.00148484
       -1.98305244        1.64578591        0.02182996        1.58234256        0.03041836        0.00976670        0.00142833
       -1.96303242        1.60132203        0.01958794        1.53654722        0.03343158        0.01032156        0.00143373
       -1.94301240        1.58768564        0.01850069        1.51892861        0.03742415        0.01131846        0.00151372
       -1.92299238        1.59980551        0.01843445        1.52439704        0.04248563        0.01281115        0.00167724
       -1.90297236        1.63021161        0.01921260        1.54565861        0.04860443        0.01480746        0.00192851
       -1.88295234        1.67002130        0.02063922        1.57420783        0.05564442        0.01726371        0.00226613
       -1.86293232        1.70986416        0.02251361        1.60124333        0.06333930        0.02008568        0.00268225
       -1.84291230        1.74077674        0.02463950        1.61852614        0.07131162        0.02313701        0.00316248
       -1.82289228        1.75508629        0.02683319        1.61919499        0.07911723        0.02625438        0.00368650
