# total density of states output by FHI-aims 
# The energy reference for this output is the vacuum level
#    Energy (eV)      DOS 
        -10.00000000         71.23488409
         -9.98998999         80.90346733
         -9.97997998         91.22414555
         -9.96996997        100.70721986
         -9.95995996        107.38790498
         -9.94994995        109.91843218
         -9.93993994        108.50511595
         -9.92992993        105.06022327
         -9.91991992        102.43080150
         -9.90990991        103.17483623
         -9.89989990        108.61272211
         -9.88988989        118.59653866
         -9.87987988        131.88576958
         -9.86986987        146.68691502
         -9.85985986        161.03003841
         -9.84984985        172.98391951
         -9.83983984        180.87644850
         -9.82982983        183.58641832
         -9.81981982        180.80601042
         -9.80980981        173.13240994
         -9.79979980        161.92565116
         -9.78978979        148.96523153
         -9.77977978        136.00635284
         -9.76976977        124.38474969
         -9.75975976        114.81954269
         -9.74974975        107.46756852
         -9.73973974        102.12281525
         -9.72972973         98.37232067
         -9.71971972         95.62422738
         -9.70970971         93.12309117
         -9.69969970         90.12269924
         -9.68968969         86.19335529
         -9.67967968         81.40524871
         -9.66966967         76.16064471
         -9.65965966         70.77284636
         -9.64964965         65.17872590
         -9.63963964         59.09055951
         -9.62962963         52.48693539
         -9.61961962         46.00221517
         -9.60960961         40.82837726
         -9.59959960         38.13239392
         -9.58958959         38.36153769
         -9.57957958         40.87628500
         -9.56956957         44.12862492
         -9.55955956         46.29321439
         -9.54954955         46.03387476
         -9.53953954         43.02778131
         -9.52952953         37.99976907
         -9.51951952         32.29552445
         -9.50950951         27.28557037
         -9.49949950         23.94550113
         -9.48948949         22.75657365
         -9.47947948         23.79774826
         -9.46946947         26.80562531
         -9.45945946         31.13133216
         -9.44944945         35.74201647
         -9.43943944         39.45398521
         -9.42942943         41.38540107
         -9.41941942         41.36668362
         -9.40940941         39.99759303
         -9.39939940         38.26362887
         -9.38938939         36.94657414
         -9.37937938         36.22226215
         -9.36936937         35.70557624
         -9.35935936         34.88052837
         -9.34934935         33.58433748
         -9.33933934         32.19667841
         -9.32932933         31.42642793
         -9.31931932         31.89850258
         -9.30930931         33.88034292
         -9.29929930         37.34916350
         -9.28928929         42.30623670
         -9.27927928         49.03291744
         -9.26926927         58.02504515
         -9.25925926         69.61103762
         -9.24924925         83.54770960
         -9.23923924         98.95400400
         -9.22922923        114.69769883
         -9.21921922        129.96568811
         -9.20920921        144.55646921
         -9.19919920        158.63894335
         -9.18918919        172.17441409
         -9.17917918        184.49295358
         -9.16916917        194.37279357
         -9.15915916        200.52563994
         -9.14914915        202.06309143
         -9.13913914        198.60874869
         -9.12912913        190.11961824
         -9.11911912        176.78228630
         -9.10910911        159.24139579
         -9.09909910        138.99774564
         -9.08908909        118.50964269
         -9.07907908        100.67428019
         -9.06906907         87.84475860
         -9.05905906         80.92440219
         -9.04904905         79.06378642
         -9.03903904         80.12358495
         -9.02902903         81.63663827
         -9.01901902         81.75322839
         -9.00900901         79.70405747
         -8.99899900         75.64617110
         -8.98898899         70.17099189
         -8.97897898         63.93830733
         -8.96896897         57.68738250
         -8.95895896         52.45503256
         -8.94894895         49.59792578
         -8.93893894         50.38223629
         -8.92892893         55.29549773
         -8.91891892         63.50727651
         -8.90890891         72.86551951
         -8.89889890         80.52541472
         -8.88888889         83.95721616
         -8.87887888         81.85830777
         -8.86886887         74.53134330
         -8.85885886         63.58521883
         -8.84884885         51.19244976
         -8.83883884         39.33580563
         -8.82882883         29.37316964
         -8.81881882         21.96905649
         -8.80880881         17.23449314
         -8.79879880         14.91580121
         -8.78878879         14.59054051
         -8.77877878         15.88835609
         -8.76876877         18.68750745
         -8.75875876         23.14902206
         -8.74874875         29.49143750
         -8.73873874         37.59765660
         -8.72872873         46.72054189
         -8.71871872         55.53112299
         -8.70870871         62.52784838
         -8.69869870         66.59125156
         -8.68868869         67.41265849
         -8.67867868         65.63308353
         -8.66866867         62.64348662
         -8.65865866         60.05728756
         -8.64864865         58.97178405
         -8.63863864         59.33908456
         -8.62862863         59.88291015
         -8.61861862         58.76881608
         -8.60860861         54.71075446
         -8.59859860         47.80577997
         -8.58858859         39.53174505
         -8.57857858         31.94167817
         -8.56856857         26.63788589
         -8.55855856         24.17820458
         -8.54854855         24.17862665
         -8.53853854         25.89410908
         -8.52852853         28.81225307
         -8.51851852         32.86717267
         -8.50850851         38.16824857
         -8.49849850         44.46875895
         -8.48848849         50.79065547
         -8.47847848         55.53980024
         -8.46846847         57.11532743
         -8.45845846         54.66272840
         -8.44844845         48.51358298
         -8.43843844         40.06948529
         -8.42842843         31.23572166
         -8.41841842         23.73215891
         -8.40840841         18.59910569
         -8.39839840         16.05379690
         -8.38838839         15.66949443
         -8.37837838         16.72220264
         -8.36836837         18.51085631
         -8.35835836         20.51893158
         -8.34834835         22.41998172
         -8.33833834         24.04103107
         -8.32832833         25.38580877
         -8.31831832         26.69192329
         -8.30830831         28.38956284
         -8.29829830         30.88238715
         -8.28828829         34.26331282
         -8.27827828         38.21793147
         -8.26826827         42.27141073
         -8.25825826         46.22993911
         -8.24824825         50.42192242
         -8.23823824         55.43511701
         -8.22822823         61.46899774
         -8.21821822         67.82934276
         -8.20820821         73.08199573
         -8.19819820         75.89225707
         -8.18818819         75.98589169
         -8.17817818         74.48270791
         -8.16816817         73.25882716
         -8.15815816         73.69633460
         -8.14814815         75.65428057
         -8.13813814         77.38940668
         -8.12812813         76.53301686
         -8.11811812         71.52450095
         -8.10810811         62.61070266
         -8.09809810         51.84113250
         -8.08808809         42.15871103
         -8.07807808         36.19486028
         -8.06806807         35.39822750
         -8.05805806         39.75797941
         -8.04804805         47.99903353
         -8.03803804         58.00640372
         -8.02802803         67.34818493
         -8.01801802         73.87888303
         -8.00800801         76.35659416
         -7.99799800         74.86695784
         -7.98798799         70.80995083
         -7.97797798         66.37132883
         -7.96796797         63.66872914
         -7.95795796         63.94545607
         -7.94794795         67.17727934
         -7.93793794         72.27993973
         -7.92792793         77.83546805
         -7.91791792         82.98703930
         -7.90790791         88.01031983
         -7.89789790         94.18001976
         -7.88788789        102.92201944
         -7.87787788        114.69108807
         -7.86786787        128.25379831
         -7.85785786        140.88413865
         -7.84784785        149.44361133
         -7.83783784        151.74600002
         -7.82782783        147.42145872
         -7.81781782        137.85969714
         -7.80780781        125.43336087
         -7.79779780        112.57376762
         -7.78778779        101.16395811
         -7.77777778         92.35264086
         -7.76776777         86.63556512
         -7.75775776         84.02369868
         -7.74774775         84.20656282
         -7.73773774         86.69345231
         -7.72772773         90.93596439
         -7.71771772         96.41082556
         -7.70770771        102.60481369
         -7.69769770        108.86269258
         -7.68768769        114.17777641
         -7.67767768        117.14156346
         -7.66766767        116.25306440
         -7.65765766        110.54902843
         -7.64764765        100.21495257
         -7.63763764         86.75459930
         -7.62762763         72.55263650
         -7.61761762         60.06784324
         -7.60760761         51.10499243
         -7.59759760         46.47760384
         -7.58758759         46.05672833
         -7.57757758         48.99667681
         -7.56756757         53.97021834
         -7.55755756         59.41576687
         -7.54754755         63.88205688
         -7.53753754         66.45149470
         -7.52752753         67.03816940
         -7.51751752         66.30965646
         -7.50750751         65.19100422
         -7.49749750         64.23828273
         -7.48748749         63.31602347
         -7.47747748         61.80172321
         -7.46746747         59.12661076
         -7.45745746         55.20884298
         -7.44744745         50.46521600
         -7.43743744         45.46505333
         -7.42742743         40.56744224
         -7.41741742         35.84203975
         -7.40740741         31.30237790
         -7.39739740         27.23639397
         -7.38738739         24.37316880
         -7.37737738         23.75672160
         -7.36736737         26.37903538
         -7.35735736         32.74528416
         -7.34734735         42.56293271
         -7.33733734         54.67757491
         -7.32732733         67.27046019
         -7.31731732         78.24499918
         -7.30730731         85.69762648
         -7.29729730         88.37611944
         -7.28728729         86.02764635
         -7.27727728         79.51359701
         -7.26726727         70.57444172
         -7.25725726         61.24146322
         -7.24724725         53.10149807
         -7.23723724         46.78362929
         -7.22722723         41.98072925
         -7.21721722         38.01439080
         -7.20720721         34.58714703
         -7.19719720         32.21904246
         -7.18718719         32.06783356
         -7.17717718         35.24427926
         -7.16716717         42.05970813
         -7.15715716         51.66582209
         -7.14714715         62.27751198
         -7.13713714         71.81161952
         -7.12712713         78.56862982
         -7.11711712         81.64263277
         -7.10710711         80.97856948
         -7.09709710         77.20063847
         -7.08708709         71.37803267
         -7.07707708         64.81045524
         -7.06706707         58.82831240
         -7.05705706         54.57799030
         -7.04704705         52.78844133
         -7.03703704         53.56685763
         -7.02702703         56.32926166
         -7.01701702         59.98068714
         -7.00700701         63.35170218
         -6.99699700         65.70295134
         -6.98698699         66.98966389
         -6.97697698         67.68814905
         -6.96696697         68.28726658
         -6.95695696         68.80418272
         -6.94694695         68.67613366
         -6.93693694         67.11381606
         -6.92692693         63.68998960
         -6.91691692         58.79487062
         -6.90690691         53.67829352
         -6.89689690         50.03332231
         -6.88688689         49.32129423
         -6.87687688         52.17010505
         -6.86686687         58.12637636
         -6.85685686         65.84171780
         -6.84684685         73.55644321
         -6.83683684         79.64485733
         -6.82682683         83.03258848
         -6.81681682         83.40720407
         -6.80680681         81.22383993
         -6.79679680         77.53609762
         -6.78678679         73.70170302
         -6.77677678         71.04600256
         -6.76676677         70.57314589
         -6.75675676         72.75895731
         -6.74674675         77.40087746
         -6.73673674         83.53477000
         -6.72672673         89.52532622
         -6.71671672         93.43714242
         -6.70670671         93.62831634
         -6.69669670         89.32853024
         -6.68668669         80.95782713
         -6.67667668         70.09266814
         -6.66666667         59.11672483
         -6.65665666         50.62561260
         -6.64664665         46.68157712
         -6.63663664         48.11848504
         -6.62662663         54.19612152
         -6.61661662         62.83633929
         -6.60660661         71.40690453
         -6.59659660         77.70825430
         -6.58658659         80.68564748
         -6.57657658         80.53966364
         -6.56656657         78.25194523
         -6.55655656         74.86503882
         -6.54654655         70.95840926
         -6.53653654         66.59056789
         -6.52652653         61.65063204
         -6.51651652         56.30524817
         -6.50650651         51.20578296
         -6.49649650         47.32016311
         -6.48648649         45.50502511
         -6.47647648         46.07202220
         -6.46646647         48.58175380
         -6.45645646         51.97284694
         -6.44644645         54.97431329
         -6.43643644         56.61586935
         -6.42642643         56.59716427
         -6.41641642         55.33646307
         -6.40640641         53.67486350
         -6.39639640         52.39154913
         -6.38638639         51.79350412
         -6.37637638         51.60767805
         -6.36636637         51.22601045
         -6.35635636         50.13240268
         -6.34634635         48.22617168
         -6.33633634         45.84155602
         -6.32632633         43.49198552
         -6.31631632         41.56178000
         -6.30630631         40.16936797
         -6.29629630         39.24704414
         -6.28628629         38.69858877
         -6.27627628         38.47249362
         -6.26626627         38.51565187
         -6.25625626         38.69947690
         -6.24624625         38.82201191
         -6.23623624         38.70473785
         -6.22622623         38.31065940
         -6.21621622         37.77492586
         -6.20620621         37.28502300
         -6.19619620         36.86569475
         -6.18618619         36.24175248
         -6.17617618         34.94838834
         -6.16616617         32.68403365
         -6.15615616         29.67567671
         -6.14614615         26.75726237
         -6.13613614         25.03676411
         -6.12612613         25.32011999
         -6.11611612         27.64262936
         -6.10610611         31.19714369
         -6.09609610         34.69670991
         -6.08608609         36.94691337
         -6.07607608         37.30111317
         -6.06606607         35.78086913
         -6.05605606         32.87056191
         -6.04604605         29.17837492
         -6.03603604         25.18566452
         -6.02602603         21.19177458
         -6.01601602         17.40288387
         -6.00600601         14.02589425
         -5.99599600         11.26307087
         -5.98598599          9.21696314
         -5.97597598          7.80603044
         -5.96596597          6.78369855
         -5.95595596          5.86237979
         -5.94594595          4.85624437
         -5.93593594          3.74718625
         -5.92592593          2.64522004
         -5.91591592          1.69110524
         -5.90590591          0.97384530
         -5.89589590          0.50373433
         -5.88588589          0.23370893
         -5.87587588          0.09718161
         -5.86586587          0.03620395
         -5.85585586          0.01208088
         -5.84584585          0.00361045
         -5.83583584          0.00096630
         -5.82582583          0.00023160
         -5.81581582          0.00004971
         -5.80580581          0.00000955
         -5.79579580          0.00000164
         -5.78578579          0.00000025
         -5.77577578          0.00000003
         -5.76576577          0.00000000
         -5.75575576          0.00000000
         -5.74574575          0.00000000
         -5.73573574          0.00000000
         -5.72572573          0.00000000
         -5.71571572          0.00000000
         -5.70570571          0.00000000
         -5.69569570          0.00000000
         -5.68568569          0.00000000
         -5.67567568          0.00000000
         -5.66566567          0.00000000
         -5.65565566          0.00000000
         -5.64564565          0.00000000
         -5.63563564          0.00000000
         -5.62562563          0.00000000
         -5.61561562          0.00000000
         -5.60560561          0.00000000
         -5.59559560          0.00000000
         -5.58558559          0.00000000
         -5.57557558          0.00000000
         -5.56556557          0.00000000
         -5.55555556          0.00000000
         -5.54554555          0.00000000
         -5.53553554          0.00000000
         -5.52552553          0.00000000
         -5.51551552          0.00000000
         -5.50550551          0.00000000
         -5.49549550          0.00000000
         -5.48548549          0.00000000
         -5.47547548          0.00000000
         -5.46546547          0.00000000
         -5.45545546          0.00000000
         -5.44544545          0.00000000
         -5.43543544          0.00000000
         -5.42542543          0.00000000
         -5.41541542          0.00000000
         -5.40540541          0.00000000
         -5.39539540          0.00000000
         -5.38538539          0.00000000
         -5.37537538          0.00000000
         -5.36536537          0.00000000
         -5.35535536          0.00000000
         -5.34534535          0.00000000
         -5.33533534          0.00000000
         -5.32532533          0.00000000
         -5.31531532          0.00000000
         -5.30530531          0.00000000
         -5.29529530          0.00000000
         -5.28528529          0.00000000
         -5.27527528          0.00000000
         -5.26526527          0.00000000
         -5.25525526          0.00000000
         -5.24524525          0.00000000
         -5.23523524          0.00000000
         -5.22522523          0.00000000
         -5.21521522          0.00000000
         -5.20520521          0.00000000
         -5.19519520          0.00000000
         -5.18518519          0.00000000
         -5.17517518          0.00000000
         -5.16516517          0.00000000
